,LongitudeGPS,LatitudeGPS,TrackID,Velocity,Acceleration,Type
0,117.31227274039502,38.99472109467244,1,0.0,0.0,0
1,117.31224752953743,38.99471823498151,1,1.100916558434591,0.5504582792172955,0
2,117.31221589101465,38.99472497493259,1,1.4175440912846626,0.1583137664250358,0
3,117.31219844835586,38.99472450269396,1,0.7541643070948048,-0.3316898920949289,0
4,117.31216429071705,38.99472012335773,1,1.4959186811955398,0.3708771870503675,0
5,117.3121430268581,38.99472152962175,1,0.9221438733576772,-0.2868874039189313,0
6,117.31212334173067,38.994726762676166,1,0.8989874487358215,-0.0115782123109279,0
7,117.31209630270895,38.99473195964709,1,1.2035684372259579,0.1522904942450682,0
8,117.31207216904093,38.994724301941325,1,1.1263904108723986,-0.0385890131767797,0
9,117.31204110207838,38.994730237758745,1,1.3823909979325564,0.1280002935300789,0
10,117.3120138434397,38.99472819386835,1,1.1833299385519296,-0.0995305296903134,0
11,117.31199496871172,38.99473711148397,1,0.9544619253327846,-0.1144340066095725,0
12,117.31196606242689,38.99473030571575,1,1.305111795911077,0.1753249352891462,0
13,117.31194497817472,38.99473412301642,1,0.9354555818900592,-0.1848281070105089,0
14,117.31191402799202,38.99473813890874,1,1.3558842303029364,0.2102143242064386,0
15,117.31188853836909,38.994742714861694,1,1.1304215439928416,-0.1127313431550474,0
16,117.31186247263535,38.99474427040754,1,1.1296302774032239,-0.0003956332948089,0
17,117.311841,38.994741,1,0.9454925706292234,-0.0920688533870002,0
18,117.31178762432627,38.99473975868501,1,2.3074248456537263,0.6809661375122514,0
19,117.31173088713014,38.99474128330643,1,2.4531107022643215,0.0728429283052976,0
20,117.31168178317645,38.994734563657104,1,2.1544483884531402,-0.1493311569055906,0
21,117.3116228405314,38.99473170515277,1,2.55189825706921,0.1987249343080348,0
22,117.31157250705594,38.99473313684414,1,2.1763937778456874,-0.1877522396117612,0
23,117.31151828581787,38.99472944657664,1,2.3518962852958123,0.0877512537250624,0
24,117.31146341994982,38.99473219269716,1,2.3756960567848746,0.0118998857445312,0
25,117.31141439544899,38.99472312861603,1,2.177492508239056,-0.0991017742729092,0
26,117.3113589348299,38.99472359221803,1,2.396623357457375,0.1095654246091595,0
27,117.3113050435534,38.994723396114495,1,2.328698089003591,-0.0339626342268922,0
28,117.3112468410099,38.99472588283964,1,2.5187621202046673,0.0950320156005382,0
29,117.31119796605338,38.99472338798151,1,2.1164646755173755,-0.2011487223436459,0
30,117.31114741162827,38.99471650743761,1,2.2177272331950935,0.050631278838859,0
31,117.31109317561192,38.994716914462344,1,2.3436784468001064,0.0629756068025065,0
32,117.31104187719177,38.99471095845508,1,2.24123171130152,-0.0512233677492933,0
33,117.31098354870288,38.994709653085465,1,2.521452180604153,0.1401102346513166,0
34,117.3109311376854,38.994714108018826,1,2.27821393474718,-0.1216191229284864,0
35,117.31088005503476,38.99470746383051,1,2.238007298153717,-0.0201033182967316,0
36,117.31082375649618,38.99470270089355,1,2.4470625156235393,0.1045276087349112,0
37,117.310769,38.994705,1,2.369510146218192,-0.0387761847026737,0
38,117.31066024866017,38.994709487838456,1,4.705827517362907,1.1681586855723578,0
39,117.31055926399912,38.99470878804394,1,4.363778702384785,-0.1710244074890612,0
40,117.31045651557979,38.99471333641632,1,4.447013876224804,0.0416175869200095,0
41,117.3103485557368,38.99470867602222,1,4.672196911788543,0.1125915177818695,0
42,117.31024652751216,38.994713929609624,1,4.4183631899352855,-0.1269168609266287,0
43,117.3101452907451,38.99471663904124,1,4.377091382696509,-0.0206359036193882,0
44,117.31004162280021,38.994715824947754,1,4.479779700662328,0.0513441589829093,0
45,117.30993610505388,38.994718408002264,1,4.561743083723638,0.0409816915306549,0
46,117.30983334116011,38.99471813524793,1,4.440512244401322,-0.0606154196611577,0
47,117.30973038043876,38.99472246411767,1,4.455496296578394,0.0074920260885358,0
48,117.30962610852724,38.99472331054185,1,4.505894109345798,0.0251989063837019,0
49,117.30951926579527,38.99472132569109,1,4.618053685583309,0.0560797881187556,0
50,117.3094159005248,38.99472262750233,1,4.467058332005634,-0.0754976767888373,0
51,117.30931282930999,38.99472308384606,1,4.4538378455517265,-0.0066102432269539,0
52,117.30920328138373,38.99473324085684,1,4.767192135974107,0.1566771452111904,0
53,117.30910101451865,38.99472607256179,1,4.436943955043428,-0.1651240904653397,0
54,117.30900034326696,38.99472965630516,1,4.354622198723476,-0.0411608781599759,0
55,117.30889028310561,38.994729692144766,1,4.755761877614404,0.200569839445464,0
56,117.30879043567714,38.994736213675175,1,4.329671867845583,-0.2130450048844104,0
57,117.308687,38.994737,1,4.469727137724147,0.0700276349392821,0
58,117.30860166804158,38.99473576346449,1,3.687882403488966,-0.3909223671175908,0
59,117.3085135397915,38.9947333011879,1,3.81053082916791,0.061324212839472,0
60,117.30842909583876,38.99472678216975,1,3.666827034742118,-0.0718518972128959,0
61,117.30834165682387,38.9947190627811,1,3.802586571248986,0.067879768253434,0
62,117.30826514234803,38.99471831464004,1,3.3064956746145615,-0.2480454483172123,0
63,117.30817150213595,38.994712915408336,1,4.057366776647743,0.3754355510165905,0
64,117.30808918715306,38.99470344537358,1,3.595635161491529,-0.2308658075781067,0
65,117.30800732831959,38.99469971947951,1,3.5432281981071214,-0.0262034816922039,0
66,117.3079198939177,38.99470010737485,1,3.778152810500573,0.1174623061967257,0
67,117.30783338890949,38.99469045190157,1,3.776282583645209,-0.0009351134276818,0
68,117.30774891061996,38.994692451904506,1,3.6520495538021156,-0.0621165149215468,0
69,117.30766089861665,38.99468572461483,1,3.8213980409405814,0.0846742435692329,0
70,117.30758307792524,38.994677325277344,1,3.394948633327674,-0.2132247038064536,0
71,117.30749063669442,38.99468036725326,1,3.9980192629472624,0.3015353148097941,0
72,117.30740681218981,38.994674667235756,1,3.635943663749406,-0.1810377995989283,0
73,117.30732511559988,38.99466746327675,1,3.552806901178511,-0.0415683812854475,0
74,117.30723828373213,38.9946608141366,1,3.7702246461848747,0.108708872503182,0
75,117.30714996157312,38.994658391133434,1,3.818830736210691,0.024303045012908,0
76,117.30706535064134,38.994653714415655,1,3.6653239016836308,-0.07675341726353,0
77,117.306983,38.994652,1,3.5596977530657727,-0.052813074308929,0
78,117.30691341564543,38.99465342854611,1,3.0078311549775347,-0.275933299044119,0
79,117.30684521907125,38.99466385854441,1,3.003328613983641,-0.0022512704969468,0
80,117.3067757394444,38.9946680808229,1,3.011419996058454,0.0040456910374065,0
81,117.30670003893337,38.99466731615138,1,3.2713407766313254,0.1299603902864357,0
82,117.30663131301391,38.994670607369656,1,2.9753202808020904,-0.1480102479146175,0
83,117.30655695180599,38.994678393881486,1,3.2422237566352794,0.1334517379165945,0
84,117.30648671252557,38.994678825835,1,3.035176005753534,-0.1035238754408727,0
85,117.30642301288408,38.99468427649046,1,2.7691310322828167,-0.1330224867353587,0
86,117.30634386355872,38.9946883118722,1,3.427439933152089,0.3291544504346362,0
87,117.30627953357931,38.99469935079422,1,2.846683006771349,-0.2903784631903701,0
88,117.30620982837797,38.994697241087934,1,3.0142852729589396,0.0838011330937953,0
89,117.30613600575747,38.99470063389611,1,3.1954906978542232,0.0906027124476418,0
90,117.30606409875163,38.9947104645095,1,3.1548476508160106,-0.0203215235191063,0
91,117.30599966287828,38.99471607515896,1,2.8017303213642513,-0.1765586647258797,0
92,117.30592638109025,38.994717380761955,1,3.167379725324963,0.1828247019803559,0
93,117.30585145017648,38.994721380884044,1,3.2454363278716074,0.0390283012733221,0
94,117.30578473892167,38.99472714590072,1,2.900395672068575,-0.1725203279015162,0
95,117.3057115938615,38.99473352718797,1,3.1804891279698118,0.1400467279506183,0
96,117.30564441549954,38.994734564744576,1,2.90338773077952,-0.1385506985951459,0
97,117.305572,38.994739,1,3.138815289740416,0.1177137794804479,0
98,117.3055352652847,38.99473193566904,1,1.6351967368150544,-0.7518092764626807,0
99,117.30548991240755,38.994733211565496,1,1.9610066789851346,0.1629049710850401,0
100,117.30545839496398,38.9947343830232,1,1.3634428625274082,-0.2987819082288632,0
101,117.3054184780399,38.99472791978887,1,1.761866246872927,0.1992116921727594,0
102,117.30537378893418,38.99472593526813,1,1.9341909914450406,0.0861623722860568,0
103,117.30533559546066,38.99472440047157,1,1.652566085076012,-0.1408124531845143,0
104,117.30530571611904,38.99471798274977,1,1.339500075524905,-0.1565330047755535,0
105,117.3052665189337,38.99471426355533,1,1.7063081938922,0.1834040591836475,0
106,117.30522807957058,38.99471353687849,1,1.6614781503135319,-0.0224150217893341,0
107,117.30518203683228,38.994706441594694,1,2.028264409228531,0.1833931294574996,0
108,117.30514899069988,38.99471223509937,1,1.4638205200045216,-0.2822219446120048,0
109,117.3051120581718,38.99470630639156,1,1.6295611500716858,0.0828703150335821,0
110,117.30507318829669,38.994706879935976,1,1.6798923802668662,0.0251656150975902,0
111,117.30503124993716,38.99469777663898,1,1.8815304741159538,0.1008190469245438,0
112,117.30499386430576,38.99469501725912,1,1.6227232035513213,-0.1294036352823162,0
113,117.30495000214432,38.99469723089313,1,1.8993012266218847,0.1382890115352817,0
114,117.30491647456343,38.994687598958016,1,1.5445511626285429,-0.1773750319966709,0
115,117.30487265381865,38.994684405794125,1,1.9018244554901313,0.1786366464307942,0
116,117.3048328162313,38.9946901965135,1,1.7512534175759624,-0.0752855189570845,0
117,117.304799,38.994683,1,1.5150076077599617,-0.1181229049080004,0
118,117.30477424314583,38.99468960613449,1,1.131052817421864,-0.1919773951690489,0
119,117.30473934792177,38.994699432612315,1,1.603765561361315,0.2363563719697256,0
120,117.30471385008588,38.99470354915726,1,1.1252964795185543,-0.2392345409213804,0
121,117.30468698268675,38.99471224203483,1,1.2575369151358071,0.0661202178086264,0
122,117.30466606888524,38.994715666623456,1,0.9235369075002641,-0.1670000038177715,0
123,117.30463440980233,38.9947245934824,1,1.45525508571321,0.265859089106473,0
124,117.30460340167271,38.9947253366598,1,1.3405157430666255,-0.0573696713232923,0
125,117.30458059347818,38.99473771917941,1,1.202191123051049,-0.0691623100077883,0
126,117.30455107642723,38.99474165423756,1,1.2940759024898252,0.0459423897193881,0
127,117.30452200084173,38.99475067149619,1,1.3527044630089426,0.0293142802595587,0
128,117.30449722411969,38.99476087691876,1,1.2116747683803737,-0.0705148473142845,0
129,117.30447538335878,38.99476835171247,1,1.0311995474260145,-0.0902376104771796,0
130,117.3044391529595,38.99477414375913,1,1.5983112124934538,0.2835558325337196,0
131,117.30441716280326,38.994778566586746,1,0.9815080274599216,-0.3084015925167661,0
132,117.30438807269095,38.99478095173537,1,1.263974676241115,0.1412333243905967,0
133,117.3043630864719,38.99479155959982,1,1.2302485269478614,-0.0168630746466268,0
134,117.30432957685659,38.994794249878204,1,1.455672829491217,0.1127121512716778,0
135,117.30431037713561,38.99480871620021,1,1.155495335279396,-0.1500887471059105,0
136,117.30427939744186,38.994806649323316,1,1.3435716810536253,0.0940381728871147,0
137,117.304252,38.994818,1,1.3415537324616418,-0.0010089742959918,0
138,117.30421003475222,38.99481990883279,1,1.8164425475549268,0.2374444075466425,0
139,117.30417955327486,38.99481930680496,1,1.3175453274942692,-0.2494486100303288,0
140,117.30413481519902,38.99482297753708,1,1.943897619845718,0.3131761461757244,0
141,117.30410065338833,38.99481826637146,1,1.499207473564463,-0.2223450731406276,0
142,117.30406710689707,38.994817622377774,1,1.4500030631140617,-0.0246022052252006,0
143,117.30402734194163,38.994819289317654,1,1.7207614807568579,0.1353792088213981,0
144,117.30398509203926,38.99481779660481,1,1.8275251023409405,0.0533818107920413,0
145,117.30395418120882,38.99482309652313,1,1.3677891416423074,-0.2298679803493165,0
146,117.30391322388155,38.99481970310385,1,1.7798146423936605,0.2060127503756766,0
147,117.30386995349996,38.99482321023752,1,1.8798748744287552,0.0500301160175474,0
148,117.30383868858816,38.99482284199014,1,1.3511277637895653,-0.2643735553195949,0
149,117.30379553863096,38.99482324469766,1,1.864665878419062,0.2567690573147483,0
150,117.3037647836784,38.99482757336025,1,1.350552500078385,-0.2570566891703385,0
151,117.30372452688854,38.99482101443512,1,1.7773275544047478,0.2133875271631814,0
152,117.3036806704113,38.99482261387344,1,1.8971458016689677,0.05990912363211,0
153,117.30364837746475,38.994825888731064,1,1.4072230490960516,-0.2449613762864581,0
154,117.30360517797021,38.994823513049155,1,1.8713390317741756,0.232057991339062,0
155,117.30356796367603,38.99482666964703,1,1.61759683793895,-0.1268710969176128,0
156,117.30353152615125,38.994833048813724,1,1.613935112621595,-0.0018308626586775,0
157,117.303495,38.994829,1,1.5942849490808348,-0.0098250817703801,0
158,117.3034611812961,38.994852565875235,1,1.9626757931957501,0.1841954220574576,0
159,117.30343022882086,38.9948798828189,1,2.023719202255879,0.0305217045300644,0
160,117.30339568037789,38.994905280753336,1,2.0548793631048743,0.0155800804244977,0
161,117.30336485836891,38.9949366595957,1,2.194846671190756,0.0699836540429408,0
162,117.30332902779924,38.99495611359693,1,1.8886331365789566,-0.1531067673058997,0
163,117.30330562280021,38.994988076844194,1,2.0447017422614295,0.0780343028412365,0
164,117.30327143161841,38.99501283118987,1,2.0191327657941796,-0.012784488233625,0
165,117.30323455245058,38.99503671620038,1,2.0743392666295577,0.0276032504176891,0
166,117.30320124963552,38.99506719807965,1,2.223253844377853,0.0744572888741477,0
167,117.30317326403724,38.99509053474892,1,1.77362038392555,-0.2248167302261516,0
168,117.30314423555564,38.995116842089224,1,1.9268124026521745,0.0765960093633122,0
169,117.30310834860057,38.99514381076978,1,2.1570350918730936,0.1151113446104596,0
170,117.30307154702486,38.99516470519218,1,1.969327866829003,-0.0938536125220453,0
171,117.30303963165375,38.99518839114154,1,1.90683252089879,-0.0312476729651066,0
172,117.30301543289941,38.995221884970434,1,2.135658286630441,0.1144128828658255,0
173,117.30298311107579,38.9952445709824,1,1.8818677763920197,-0.1268952551192106,0
174,117.30294370414141,38.995272179575004,1,2.292508686506585,0.2053204550572827,0
175,117.30291026106894,38.995297327700726,1,2.0107582517542557,-0.1408752173761647,0
176,117.30288318287727,38.99532016842936,1,1.7267423103519273,-0.1420079707011642,0
177,117.302849,38.995348,1,2.1391611815886913,0.206209435618382,0
178,117.30279437376953,38.99541280865202,1,4.307499748543306,1.0841692834773076,0
179,117.30275272692656,38.99547393394989,1,3.8454695723719556,-0.2310150880856754,0
180,117.30269517488607,38.995543099355544,1,4.5794737973977355,0.3670021125128899,0
181,117.30264792977222,38.99560598704269,1,4.048747661769748,-0.2653630678139938,0
182,117.30259692269983,38.99566359886464,1,3.8881038777823886,-0.0803218919936797,0
183,117.30254657786182,38.99572728241527,1,4.155540896509347,0.1337185093634792,0
184,117.30250607656491,38.99579445456692,1,4.124312124251728,-0.0156143861288096,0
185,117.30245529921623,38.99585606303029,1,4.067739879178964,-0.028286122536382,0
186,117.30239781553632,38.995919241718035,1,4.30206339349856,0.1171617571597983,0
187,117.30235396077741,38.995984715099645,1,4.103849306814966,-0.0991070433417973,0
188,117.30230121532385,38.996049942021216,1,4.2831686990306315,0.0896596961078329,0
189,117.30225533445618,38.996115166383426,1,4.132847031959751,-0.0751608335354401,0
190,117.30220056330631,38.99617117748903,1,3.911326331505296,-0.1107603502272276,0
191,117.30215386157231,38.99623979547095,1,4.3158201228471444,0.2022468956709242,0
192,117.30210904868149,38.99629867610114,1,3.8034182537312957,-0.2562009345579244,0
193,117.30205237526131,38.996362053506665,1,4.291003562206407,0.2437926542375555,0
194,117.30200375621284,38.996430257610136,1,4.335027717913289,0.0220120778534412,0
195,117.30195603884519,38.996489112538725,1,3.867608191603297,-0.233709763154996,0
196,117.30190931902123,38.996553580079414,1,4.113638685856264,0.1230152471264836,0
197,117.301856,38.99662,1,4.352528107474415,0.1194447108090753,0
198,117.30188794808943,38.99666018085692,1,2.6260640734282696,-0.8632320170230725,0
199,117.30191002547548,38.996700441704206,1,2.4331994359316402,-0.0964323187483147,0
200,117.30193608221553,38.996743598576,1,2.6504376361707855,0.1086191001195727,0
201,117.30196538978704,38.99678555730187,1,2.6543583235316417,0.0019603436804281,0
202,117.30199285779878,38.99682364662627,1,2.427590161663381,-0.1133840809341304,0
203,117.30202100855628,38.99686458368199,1,2.5806442753021934,0.0765270568194063,0
204,117.30205367830096,38.99691162557362,1,2.9720501299081885,0.1957029273029975,0
205,117.30207965800007,38.99694540539398,1,2.1879904656667706,-0.392029832120709,0
206,117.30210242727084,38.99698781615376,1,2.554952421283323,0.1834809778082762,0
207,117.30212900347519,38.99702850532505,1,2.5369845090703738,-0.0089839561064746,0
208,117.30215901548645,38.99707099192844,1,2.694700957394579,0.0788582241621025,0
209,117.30218763260245,38.997115945447135,1,2.788456767913946,0.0468779052596835,0
210,117.30221160310361,38.997151325422166,1,2.223060712193048,-0.282698027860449,0
211,117.30224693484483,38.997193921138006,1,2.8176411726735386,0.2972902302402454,0
212,117.3022660673173,38.997239325045236,1,2.6562622015394983,-0.0806894855670202,0
213,117.3022979217346,38.99727395403122,1,2.366683215778782,-0.1447894928803581,0
214,117.30233020259614,38.997317911656395,1,2.813954281758892,0.223635532990055,0
215,117.30235695729665,38.997354404345295,1,2.335139092145971,-0.2394075948064605,0
216,117.30238473415834,38.99739750274211,1,2.6799424584223166,0.1724016831381727,0
217,117.302409,38.997441,1,2.6358506718614607,-0.0220458932804279,0
218,117.30249942597666,38.99747200903407,1,4.2706582604022,0.8174037942703698,0
219,117.30259451827322,38.9974948176465,1,4.300067227257096,0.0147044834274479,0
220,117.30268968619502,38.99752071414793,1,4.3568699338678085,0.0284013533053562,0
221,117.30278767351133,38.99754464303485,1,4.438017373960104,0.0405737200461478,0
222,117.30288302504515,38.99757249209554,1,4.401361635390456,-0.0183278692848239,0
223,117.30297970514054,38.99760843382499,1,4.630768879272623,0.1147036219410835,0
224,117.30307858387613,38.99763116838293,1,4.4554824508511475,-0.087643214210738,0
225,117.30316599746165,38.99765570288731,1,4.015798817956189,-0.2198418164474791,0
226,117.30326381334352,38.997680567263984,1,4.4468363364669035,0.2155187592553571,0
227,117.30336075254785,38.99770945414409,1,4.485968118568796,0.0195658910509464,0
228,117.30346114621841,38.99773883014302,1,4.635156512198238,0.0745941968147208,0
229,117.30355020053635,38.99776854431147,1,4.187567341574939,-0.2237945853116496,0
230,117.30364695708124,38.997795324404926,1,4.437938173419559,0.12518541592231,0
231,117.3037419850368,38.99782519643194,1,4.429197484044465,-0.0043703446875467,0
232,117.30383800418967,38.997849144184016,1,4.357264218796434,-0.0359666326240156,0
233,117.30393376757027,38.9978710367767,1,4.3131139102880205,-0.0220751542542068,0
234,117.30402483929255,38.99790445113262,1,4.351567473514292,0.0192267816131357,0
235,117.30412675812636,38.99792895686995,1,4.609717400244233,0.1290749633649706,0
236,117.3042155179797,38.9979514274385,1,4.033539756701013,-0.28808882177161,0
237,117.304313,38.997983,1,4.563191860209409,0.264826051754198,0
238,117.30434331149924,38.99798310924603,1,1.3097307944089438,-1.6267305329002326,0
239,117.30437287174793,38.99799396773112,1,1.4127427427808907,0.0515059741859735,0
240,117.30440734566406,38.998001549595216,1,1.5480645683614829,0.0676609127902961,0
241,117.30443572440927,38.99800158319367,1,1.2262062642944844,-0.1609291520334992,0
242,117.30446689507667,38.99800229423218,1,1.3474198218106441,0.0606067787580798,0
243,117.30449832379666,38.998006918023364,1,1.3821077622617175,0.0173439702255367,0
