,LongitudeGPS,LatitudeGPS,TrackID,Velocity,Acceleration,Type
0,117.308708,38.998045,2,0.0,0.0,0
1,117.30881143021399,38.99804720348836,2,4.470747069672198,2.235373534836099,0
2,117.30891820239047,38.99804020615014,2,4.629843465022509,0.0795481976751553,0
3,117.30901618875423,38.998043261822204,2,4.237254797853154,-0.1962943335846772,0
4,117.30911933664709,38.9980392648592,2,4.462406442682433,0.1125758224146391,0
5,117.30922389362964,38.998040349926335,2,4.518157441215518,0.0278754992665426,0
6,117.30932656360308,38.998036730546445,2,4.440781390427444,-0.0386880253940372,0
7,117.3094301650801,38.998034886993196,2,4.477642201463361,0.0184304055179587,0
8,117.30952645552007,38.99803396108317,2,4.160888203799181,-0.15837699883209,0
9,117.30962975568977,38.9980306049849,2,4.467348525084262,0.1532301606425404,0
10,117.30973730757692,38.99802531517928,2,4.656457798020927,0.0945546364683327,0
11,117.30983969558233,38.99802133880818,2,4.4295576869535305,-0.1134500555336984,0
12,117.30994238068247,38.998019573128104,2,4.43796044195858,0.0042013775025249,0
13,117.31004836892231,38.99802269776234,2,4.582892205029705,0.0724658815355625,0
14,117.3101514726246,38.998014430398015,2,4.478611227861027,-0.0521404885843393,0
15,117.31025088165202,38.998020878670154,2,4.310255786131886,-0.0841777208645702,0
16,117.31035422960085,38.998020258427566,2,4.465648451814137,0.0776963328411253,0
17,117.31045524695676,38.99801292146863,2,4.3838335985558725,-0.0409074266291323,0
18,117.31056202873037,38.99801523528928,2,4.615679362172277,0.1159228818082023,0
19,117.31065788992244,38.99801087282884,2,4.149118922866087,-0.233280219653095,0
20,117.310763,38.998008,2,4.544462756597304,0.1976719168656085,0
21,117.3108092316905,38.99800467105855,2,2.0061605065439867,-1.2691511250266587,0
22,117.31084991749634,38.99800095824317,2,1.7700529428220326,-0.118053781860977,0
23,117.31088993597736,38.99799491468785,2,1.7614850462635472,-0.0042839482792427,0
24,117.31093382489475,38.99799324238837,2,1.8986551526145758,0.0685850531755143,0
25,117.31098011006127,38.997982404415964,2,2.0887190005260825,0.0950319239557533,0
26,117.31102396169014,38.997983920179486,2,1.8966395748517386,-0.0960397128371719,0
27,117.31106499892246,38.99797407276174,2,1.855759928104213,-0.0204398233737628,0
28,117.31111328144392,38.99797535125703,2,2.087429808072724,0.1158349399842555,0
29,117.31115140745892,38.997974637267546,2,1.6478491940350113,-0.2197903070188564,0
30,117.3111951215505,38.99797000141518,2,1.9063280306643902,0.1292394183146894,0
31,117.3112414314813,38.99795737242175,2,2.120600941949139,0.1071364556423745,0
32,117.31128363342195,38.99795583984149,2,1.8254761281712217,-0.1475624068889587,0
33,117.31132679356641,38.99795623641973,2,1.8650194203986041,0.0197716461136912,0
34,117.31136854723407,38.99795325399864,2,1.811721176452121,-0.0266491219732415,0
35,117.31141528505816,38.99794274905933,2,2.102235619100192,0.1452572213240354,0
36,117.31145601165,38.99794428463762,2,1.7618087732057792,-0.1702134229472063,0
37,117.3114970669862,38.99793831960824,2,1.804677672184695,0.0214344494894579,0
38,117.31153967340141,38.99792864799374,2,1.9178862231683806,0.0566042754918428,0
39,117.31158795411827,38.9979278349077,2,2.0866323578005415,0.0843730673160804,0
40,117.311627,38.997923,2,1.7083987435342014,-0.18911680713317,0
41,117.31165354877201,38.99791883445972,2,1.170280179821424,-0.2690592818563887,0
42,117.31169178993986,38.99792097202343,2,1.6566161829046493,0.2431680015416127,0
43,117.31171469152791,38.99792617047743,2,1.0308899128506774,-0.3128631350269859,0
44,117.31175079327153,38.997921942720495,2,1.577516128215022,0.2733131076821723,0
45,117.31178118415968,38.99791626670046,2,1.3505347190571622,-0.11349070457893,0
46,117.31180886689607,38.99791676355503,2,1.1964516715004438,-0.0770415237783592,0
47,117.31183900400254,38.99792088640776,2,1.3222032663504406,0.0628757974249984,0
48,117.31186599628319,38.997921780987404,2,1.1673590320131328,-0.0774221171686539,0
49,117.31189533920856,38.99791896322718,2,1.277509112838721,0.0550750404127941,0
50,117.31192929320055,38.997918191499124,2,1.46773224132976,0.0951115642455195,0
51,117.31195304903115,38.99791983785394,2,1.0305296380181461,-0.2186013016558069,0
52,117.311983894938,38.997920598341025,2,1.3334793673107628,0.1514748646463083,0
53,117.31202099628781,38.99791212589255,2,1.6708704681032052,0.1686955503962212,0
54,117.3120474454087,38.997919346778836,2,1.2112938365310328,-0.2297883157860862,0
55,117.31207330854326,38.997917796109554,2,1.120830868510321,-0.0452314840103559,0
56,117.31211088814807,38.99791874818453,2,1.6246252377537855,0.2518971846217323,0
57,117.31214177886247,38.997910905555905,2,1.404160518273861,-0.1102323597399623,0
58,117.31216531080628,38.99791472885805,2,1.0387644083613548,-0.1826980549562531,0
59,117.31220096259658,38.99791111926954,2,1.5534816581407977,0.2573586248897215,0
60,117.312227,38.997912,2,1.1261053597291084,-0.2136881492058447,0
61,117.31224353863463,38.99790650363014,2,0.7772074656245315,-0.1744489470522885,0
62,117.31226297972628,38.99789546446756,2,1.0403493489023803,0.1315709416389244,0
63,117.31227795592845,38.997884448268195,2,0.890989811067349,-0.0746797689175157,0
64,117.31228949273552,38.99787962251162,2,0.566106695082752,-0.1624415579922985,0
65,117.31230847072564,38.99787190461136,2,0.9254969983836719,0.17969515165046,0
66,117.3123207150518,38.99786726111306,2,0.588689499648525,-0.1684037493675735,0
67,117.31234425992442,38.99785131880766,2,1.3492977953852032,0.3803041478683391,0
68,117.31235391660113,38.997843102580845,2,0.6186814711337029,-0.3653081621257502,0
69,117.31236965345438,38.99784308441926,2,0.6799691106529427,0.0306438197596199,0
70,117.31238859235114,38.99783373930023,2,0.9693309896457221,0.1446809394963897,0
71,117.3124038366701,38.99782763943788,2,0.7408657266311558,-0.1142326315072831,0
72,117.31242151476579,38.99781638323342,2,0.9874758425044737,0.123305057936659,0
73,117.31243213148305,38.99780172196512,2,0.9353464768555463,-0.0260646828244637,0
74,117.31245659983256,38.997795118796155,2,1.1191712532809888,0.0919123882127212,0
75,117.31247004571712,38.997790786753484,2,0.6289242381549359,-0.2451235075630264,0
76,117.3124845078303,38.99777975496203,2,0.8755979831957708,0.1233368725204174,0
77,117.31250321866021,38.99777704580656,2,0.8223818025045965,-0.0266080903455871,0
78,117.31251309614906,38.99776402867807,2,0.8401918571092439,0.0089050273023237,0
79,117.31253501506154,38.99775758690164,2,1.0125435680894317,0.0861758554900939,0
80,117.312549,38.99775,2,0.7369324893180098,-0.1378055393857109,0
81,117.31255896395808,38.997738999304524,2,0.7479463290429812,0.0055069198624857,0
82,117.31256315989704,38.99771897814095,2,1.1277940458041902,0.1899238583806045,0
83,117.31256763457458,38.99771162990025,2,0.4519847154911654,-0.3379046651565124,0
84,117.3125747101361,38.997694828897,2,0.9828522330202367,0.2654337587645357,0
85,117.31258179877871,38.99767781736875,2,0.9941569064756575,0.0056523367277104,0
86,117.31259263841649,38.997665606745066,2,0.8247700554923785,-0.0846934254916395,0
87,117.31259262615244,38.9976495469411,2,0.8928845193959872,0.0340572319518044,0
88,117.31259760351433,38.99763455810793,2,0.8606454969347692,-0.016119511230609,0
89,117.31260432544588,38.99762276046039,2,0.7173487937129027,-0.0716483516109332,0
90,117.31261939672687,38.997608678145994,2,1.0183680915483073,0.1505096489177023,0
91,117.31261928958354,38.99759580971838,2,0.715466910251787,-0.1514505906482602,0
92,117.31262996685643,38.99757686796302,2,1.1497365479645092,0.2171348188563611,0
93,117.31263739503129,38.99756329036454,2,0.8202810118657858,-0.1647277680493617,0
94,117.31264298264844,38.997544416325304,2,1.0767651987489275,0.1282420934415708,0
95,117.31264701744706,38.99753710149646,2,0.4424788448773944,-0.3171431769357665,0
96,117.31265381380884,38.9975212799587,2,0.9273617689632708,0.2424414620429382,0
97,117.31265964551582,38.99750413734096,2,0.9858334946431081,0.0292358628399186,0
98,117.31267168034084,38.997495459951246,2,0.709338302715636,-0.138247595963736,0
99,117.31267998782039,38.99747653779859,2,1.1115772052873698,0.2011194512858669,0
100,117.312683,38.997462,2,0.8186767680213759,-0.146450218632997,0
101,117.31269837803794,38.99740460880215,2,3.259256779236775,1.2202900056076995,0
102,117.3127114560233,38.997358699933685,2,2.614221252587525,-0.322517763324625,0
103,117.3127283289245,38.99729861821437,2,3.4190265989926485,0.4024026732025618,0
104,117.31274563332643,38.997254238984304,2,2.5781760856471863,-0.4204252566727311,0
105,117.31276966937169,38.99719290632259,2,3.564594008954263,0.4932089616535384,0
106,117.31278604510804,38.99713832595424,2,3.1159336540366604,-0.2243301774588013,0
107,117.31279885049919,38.997093172806274,2,2.570654003631445,-0.2726398252026077,0
108,117.31281901751186,38.99703541068128,2,3.327552250147704,0.3784491232581295,0
109,117.31283351658294,38.99698022541722,2,3.1314698359707864,-0.0980412070884589,0
110,117.31284712836053,38.99693376115424,2,2.649403527909116,-0.2410331540308353,0
111,117.3128675521105,38.99687345582611,2,3.467018980010158,0.408807726050521,0
112,117.31287867574125,38.996819768887406,2,3.023308377071501,-0.2218553014693285,0
113,117.31289585666119,38.99677380378139,2,2.66118826069871,-0.1810600581863955,0
114,117.31292006036011,38.996722733112534,2,3.0258786339904002,0.1823451866458452,0
115,117.31292753716615,38.996660681284084,2,3.4650180852394716,0.2195697256245357,0
116,117.31295247422263,38.996610634698115,2,2.9838131047635845,-0.2406024902379436,0
117,117.31296351449842,38.99655880436741,2,2.920854455980164,-0.0314793243917102,0
118,117.31298507471604,38.99650747057985,2,3.002226929592593,0.0406862368062144,0
119,117.31299712192394,38.99645147405707,2,3.1564842493425185,0.0771286598749628,0
120,117.313015,38.996399,2,3.0179673140779344,-0.069258467632292,0
121,117.31300634166706,38.99634792783363,2,2.8640235587719354,-0.0769718776529995,0
122,117.31299202863859,38.99630077870648,2,2.693340552043561,-0.0853415033641871,0
123,117.3129805494059,38.9962503664196,2,2.8463468666710243,0.0765031573137316,0
124,117.31296370101607,38.9962043016507,2,2.6625468456421073,-0.0919000105144585,0
125,117.31295111110443,38.9961562241712,2,2.7277822819633655,0.0326177181606291,0
126,117.31294606945268,38.996109267708576,2,2.6197336887898666,-0.0540242965867495,0
127,117.3129336004429,38.99606382303646,2,2.583415791601995,-0.0181589485939357,0
128,117.31291740559331,38.996013716014446,2,2.8723679201039363,0.1444760642509706,0
129,117.31290201417316,38.995958526197825,2,3.139660528273713,0.1336463040848883,0
130,117.31289279980713,38.995910183341756,2,2.7170703986529534,-0.2112950648103797,0
131,117.31287542050093,38.99586709298769,2,2.5106541477854454,-0.103208125433754,0
132,117.3128716713859,38.99582175385159,2,2.525941128776532,0.0076434904955434,0
133,117.31285433357637,38.99577245534429,2,2.8414129496346896,0.1577359104290788,0
134,117.31284471114833,38.99571648254435,2,3.1395991446188773,0.1490930974920939,0
135,117.31282786446704,38.995677560650456,2,2.2831163040898237,-0.4282414202645268,0
136,117.31281680284866,38.99562603895599,2,2.904079497165714,0.310481596537945,0
137,117.31280210486537,38.9955787270134,2,2.706008640269028,-0.0990354284483428,0
138,117.31279710261653,38.99553108634951,2,2.6575047983801303,-0.0242519209444489,0
139,117.31278461073823,38.99548211680049,2,2.775574500743725,0.0590348511817973,0
140,117.312769,38.995431,2,2.920919133639625,0.0726723164479501,0
141,117.3127546817183,38.99540886195655,2,1.3775699694534584,-0.7716745820930834,0
142,117.3127514536195,38.99539014013319,2,1.0501904372351298,-0.1636897661091643,0
143,117.3127429775014,38.9953650495531,2,1.4422520283793643,0.1960307955721172,0
144,117.31272878876632,38.99534226315422,2,1.4074225849328794,-0.0174147217232424,0
145,117.31271970509792,38.995325092656785,2,1.0321782239487503,-0.1876221804920646,0
146,117.31271138453992,38.9953015099829,2,1.3595380926374676,0.1636799343443587,0
147,117.31269994764561,38.995277970686395,2,1.3989231757493725,0.0196925415559525,0
148,117.31268659790346,38.9952565684005,2,1.3223627322024902,-0.0382802217734411,0
149,117.31268380683274,38.99524109130627,2,0.8688977110472763,-0.226732510577607,0
150,117.31267081621283,38.99521531712384,2,1.5389991701417518,0.3350507295472377,0
151,117.31266102679797,38.99519275375502,2,1.323864381193375,-0.1075673944741884,0
152,117.31265285668822,38.99517559877889,2,1.0170129644786958,-0.1534257083573396,0
153,117.31263617122538,38.995146523215865,2,1.7700223186843533,0.3765046771028288,0
154,117.31262538399861,38.995131045127984,2,0.9786728746130869,-0.3956747220356332,0
155,117.31261546761141,38.995103777095046,2,1.5754241996671232,0.2983756625270181,0
156,117.31261217301804,38.99508134515144,2,1.2552579365722496,-0.1600831315474368,0
157,117.31259660246441,38.995061419739876,2,1.2961088473168856,0.020425455372318,0
158,117.31258876308098,38.99504326826265,2,1.064510659470688,-0.1157990939230988,0
159,117.3125786060958,38.99502448759403,2,1.1326459689891222,0.0340676547592171,0
160,117.31257,38.994998,2,1.5188702595343586,0.1931121452726182,0
161,117.31255645693913,38.994980746170796,2,1.123680397677731,-0.1975949309283138,0
162,117.3125435504429,38.994972458622264,2,0.7234152728719103,-0.2001325624029103,0
163,117.3125383963289,38.9949594944301,2,0.754399565864929,0.0154921464965093,0
164,117.31252640477581,38.994938459579515,2,1.2791339042870333,0.2623671692110522,0
165,117.31251388111,38.99492664807592,2,0.8509335742764104,-0.2141001650053115,0
166,117.31250329153207,38.99490859811726,2,1.1029306994261734,0.1259985625748815,0
167,117.3124893141424,38.9948971453039,2,0.8776253397030228,-0.1126526798615753,0
168,117.31248150990103,38.99488508823184,2,0.7503864713971563,-0.0636194341529333,0
169,117.31246624848208,38.99487505067039,2,0.8638938836405282,0.056753706121686,0
170,117.31246211393186,38.994857561809226,2,0.9886130903058288,0.0623596033326503,0
171,117.31244325989228,38.994842169582256,2,1.1815513904706443,0.0964691500824078,0
172,117.31243748434672,38.994831974313875,2,0.6193381440073608,-0.2811066232316418,0
173,117.31242864634605,38.99481343207172,2,1.09936416073214,0.2400130083623896,0
174,117.31240872207654,38.9948020644682,2,1.0680124880896629,-0.0156758363212386,0
175,117.31240422575036,38.99478223246912,2,1.1195956065710415,0.0257915592406893,0
176,117.31238649560561,38.994771014904074,2,0.9878844286128359,-0.0658555889791028,0
177,117.31237544337463,38.99475870339666,2,0.8346259469741616,-0.0766292408193371,0
178,117.31237324792386,38.994741180320084,2,0.978846537151905,0.0721102950888717,0
179,117.31235689790755,38.9947283328372,2,1.0046588594921104,0.0129061611701027,0
180,117.312346,38.994714,2,0.9256090578347091,-0.0395249008287006,0
181,117.31234982714903,38.99471085198231,2,0.2407923562163605,-0.3424083508091743,0
182,117.3123420720843,38.994716796563864,2,0.470664637015921,0.1149361403997803,0
183,117.31234924732938,38.9947148589633,2,0.3282279899652109,-0.0712183235253551,0
184,117.31234428651949,38.99471332246633,2,0.2307540979233171,-0.0487369460209469,0
185,117.31235072249616,38.99471005609617,2,0.3321447051396571,0.05069530360817,0
186,117.31234985999083,38.99471709383112,2,0.3930511514651825,0.0304532231627627,0
187,117.31234446345762,38.99471161131211,2,0.3837811557292244,-0.0046349978679791,0
188,117.3123472410313,38.99471624768529,2,0.2843424129023149,-0.0497193714134548,0
189,117.31235061550855,38.99471353396779,2,0.209821273721827,-0.037260569590244,0
190,117.31234543017925,38.99471473191524,2,0.2337504864387227,0.0119646063584479,0
191,117.31234791631464,38.99471096215988,2,0.2355166917347327,0.000883102648005,0
192,117.31234530083924,38.994709830590175,2,0.1293469394992314,-0.0530848761177507,0
193,117.3123458331305,38.99471849377631,2,0.4822000426000365,0.1764265515504025,0
194,117.31234117634651,38.99471220040328,2,0.4036301850279764,-0.03928492878603,0
195,117.31234332295152,38.9947120063982,2,0.0933810657056506,-0.1551245596611629,0
196,117.31234945223493,38.99471760459923,2,0.4086800340911441,0.1576494841927467,0
197,117.31234391982086,38.99471351185588,2,0.3300399147619308,-0.0393200596646066,0
198,117.31234312299351,38.99471551032816,2,0.1163226063690255,-0.1068586541964527,0
199,117.31234323897944,38.994710736781286,2,0.2654444151570997,0.0745609043940371,0
200,117.312346,38.994714,2,0.2171391052609802,-0.0241526549480597,0
201,117.31232008699138,38.99471205962052,2,1.124900845822937,0.4538808702809784,0
202,117.31229599035687,38.99471568562941,2,1.0605658336767283,-0.0321675060731044,0
203,117.31227224856012,38.99471970316203,2,1.049931192423547,-0.0053173206265906,0
204,117.31224209666617,38.99471704411039,2,1.3112411054922704,0.1306549565343617,0
205,117.31222116918707,38.99472174066563,2,0.9412327740988915,-0.1850041656966894,0
206,117.31218990523301,38.99472171010933,2,1.3509342546968166,0.2048507402989626,0
207,117.31217017770835,38.99472496430404,2,0.8714261605597969,-0.2397540470685098,0
208,117.31214229839108,38.99472368473347,2,1.2067798053403451,0.1676768223902741,0
209,117.3121139579158,38.9947293698949,2,1.2647416705871561,0.0289809326234055,0
210,117.312094883763,38.99473233638344,2,0.8405446433328853,-0.2120985136271354,0
211,117.31207313485548,38.99472814645931,2,0.9682233650858005,0.0638393608764576,0
212,117.31203921414505,38.9947349530909,2,1.5137976725978324,0.2727871537560159,0
213,117.31201838935968,38.9947297032576,2,0.9460040277410033,-0.2838968224284145,0
214,117.31199660110926,38.994733234471795,2,0.9617346140823799,0.0078652931706883,0
215,117.31196272145765,38.9947378220256,2,1.4860110191742355,0.2621382025459278,0
216,117.31193921277587,38.99473613821112,2,1.020127836965574,-0.2329415911043308,0
217,117.31192072017444,38.99473337895089,2,0.8136681554766658,-0.1032298407444541,0
218,117.31189089653203,38.99474093128817,2,1.3553767866701603,0.2708543155967472,0
219,117.31186177486005,38.99473631415427,2,1.2842797501602874,-0.0355485182549364,0
220,117.311841,38.994741,2,0.9347322987415161,-0.1747737257093857,0
221,117.3117909833605,38.994741566192836,2,2.1614759991659462,0.6133718502122151,0
222,117.31173348152929,38.99473673605172,2,2.499156020329474,0.1688400105817638,0
223,117.31168487664358,38.99473763810347,2,2.1008429226655374,-0.1991565488319682,0
224,117.31162227183516,38.99473566353198,2,2.7074153457359325,0.3032862115351975,0
225,117.31157528796962,38.99473294021093,2,2.0358372648576424,-0.335789040439145,0
226,117.31152439729406,38.99473183818832,2,2.1998680140285822,0.0820153745854699,0
227,117.31147040935171,38.99472716094738,2,2.3472980917052877,0.0737150388383527,0
228,117.31140911215284,38.994726212982975,2,2.64921085552121,0.1509563819079611,0
229,117.3113633404429,38.99472398377418,2,1.9817008892099504,-0.3337549831556298,0
230,117.31130132994076,38.994724259681355,2,2.679552786359338,0.3489259485746937,0
231,117.31125596326683,38.99471971545419,2,1.9765333539149446,-0.3515097162221966,0
232,117.31119898249862,38.994723700033006,2,2.472117354469829,0.2477920002774422,0
233,117.3111442314333,38.99471660725283,2,2.3984642403882024,-0.0368265570408133,0
234,117.31109306863212,38.99471300172871,2,2.2198433568295926,-0.0893104417793049,0
235,117.31104158822963,38.99471073676941,2,2.2280591045684375,0.0041078738694225,0
236,117.31098293136863,38.99471084927806,2,2.534604341490104,0.1532726184608333,0
237,117.3109267515205,38.99471081310109,2,2.427564308918578,-0.053520016285763,0
238,117.3108768220994,38.994707442327645,2,2.1656030944338767,-0.1309806072423507,0
239,117.3108265523514,38.99470218343324,2,2.191774109372984,0.0130855074695537,0
240,117.310769,38.994705,2,2.491795733017491,0.1500108118222534,0
241,117.31066578361066,38.994710490345966,2,4.470473177031744,0.9893387220071266,0
242,117.31055648229247,38.99470934924203,2,4.723398822482677,0.1264628227254665,0
243,117.3104540192381,38.99470961635998,2,4.427512367195154,-0.1479432276437613,0
