,LongitudeGPS,LatitudeGPS,TrackID,Velocity,Acceleration,Type
0,117.312346,38.994714,0,0.0,0.0,0
1,117.31232263928277,38.994712274461136,0,1.0139785438741193,0.5069892719370597,0
2,117.31229916005783,38.99471485098865,0,1.0246137380002855,0.0053175970630831,0
3,117.31227182422708,38.99471751238673,0,1.190428582822736,0.0829074224112252,0
4,117.31224982692176,38.99472086687149,0,0.9686399588201198,-0.1108943120013081,0
5,117.31222096719789,38.99472097296204,0,1.2470590009573264,0.1392095210686033,0
6,117.31219163061377,38.99472677440171,0,1.3080416761375857,0.0304913375901297,0
7,117.31216437326458,38.99472497647557,0,1.1820396362006296,-0.0630010199684781,0
8,117.31214173731334,38.99472428059267,0,0.9788771330537277,-0.1015812515734509,0
9,117.31212004616266,38.994724501346084,0,0.9373672410528742,-0.0207549460004268,0
10,117.31209230878797,38.99472610482609,0,1.20185857912914,0.132245669038133,0
11,117.31206630496578,38.99472483505493,0,1.1258553665272626,-0.0380016063009387,0
12,117.3120405956984,38.99472615111824,0,1.113319007723898,-0.0062681794016823,0
13,117.31202173448526,38.99472959775775,0,0.8372280808579515,-0.1380454634329732,0
14,117.31198770410505,38.994736460422956,0,1.519165969510736,0.3409689443263922,0
15,117.31197074168112,38.994738278714486,0,0.739894501740139,-0.3896357338852985,0
16,117.31194096687699,38.994732818906044,0,1.3219103026882721,0.2910079004740665,0
17,117.31191755799543,38.99473385917949,0,1.0131630348449177,-0.1543736339216772,0
18,117.31189246583716,38.99474186483975,0,1.1720489427746814,0.0794429539648819,0
19,117.31186307036226,38.99473965340885,0,1.2761314681792713,0.0520412627022949,0
20,117.311841,38.994741,0,0.9566067851342129,-0.1597623415225292,0
21,117.31179180053967,38.99474205655671,0,2.1267473860373163,0.5850703004515516,0
22,117.31173392475408,38.99474153108084,0,2.5010154532504534,0.1871340336065686,0
23,117.31168259813097,38.99473619723593,0,2.237589812427467,-0.1317128204114932,0
24,117.31163025666253,38.99473086599692,0,2.281043766876401,0.021726977224467,0
25,117.31157606795084,38.994727608625894,0,2.348517783640027,0.0337370083818129,0
26,117.31152171242458,38.99473499059272,0,2.3843215440336647,0.0179018801968189,0
27,117.31146720040277,38.994727025280774,0,2.396763266492874,0.0062208612296046,0
28,117.31140744473517,38.994727343443934,0,2.5821366805353296,0.0926867070212278,0
29,117.31136271056657,38.99472602221807,0,1.9343838991546545,-0.3238763906903376,0
30,117.31130176023412,38.99472611535062,0,2.6337033625250355,0.3496597316851905,0
31,117.31125196200956,38.9947228308485,0,2.1595440004339266,-0.2370796810455544,0
32,117.31120036266273,38.99472116211721,0,2.231566471065804,0.0360112353159387,0
33,117.31114278655251,38.994715228514316,0,2.509673001862822,0.139053265398509,0
34,117.31108993656542,38.99471456528581,0,2.2839758127189915,-0.1128485945719153,0
35,117.31103740747588,38.99471890159209,0,2.282579541393488,-0.0006981356627518,0
36,117.31098770805458,38.994712593141344,0,2.175992613192208,-0.05329346410064,0
37,117.31093065138313,38.994712091433456,0,2.465609248226433,0.1448083175171124,0
38,117.31087555868125,38.99471013824451,0,2.383062727841914,-0.0412732601922594,0
39,117.31082626598806,38.994707079268665,0,2.1367446764852236,-0.1231590256783452,0
40,117.310769,38.994705,0,2.4771952146457745,0.1702252690802755,0
41,117.31066225128072,38.99471078054892,0,4.623856116124039,1.0733304507391324,0
42,117.31056330118922,38.994711893757845,0,4.276138126244334,-0.1738589949398528,0
43,117.31046149546381,38.99470644708925,0,4.409494284612391,0.0666780791840287,0
44,117.31035062657799,38.994706939424425,0,4.790786653654251,0.1906461845209302,0
45,117.3102461143093,38.99471468531267,0,4.536522232850093,-0.1271322104020793,0
46,117.3101402956899,38.99471275934907,0,4.573736694025192,0.0186072305875498,0
47,117.31003692427265,38.99471258038673,0,4.466749222573182,-0.053493735726005,0
48,117.30993898226654,38.99471963576789,0,4.25026975641075,-0.1082397330812159,0
49,117.30982850860077,38.99471833631829,0,4.774176609769977,0.2619534266796135,0
50,117.30972427899421,38.99471621264232,0,4.505368092303865,-0.1344042587330563,0
51,117.30962326754249,38.99472245039003,0,4.378518235047062,-0.0634249286284012,0
52,117.30951495413369,38.99472494536923,0,4.68233885907704,0.1519103120149889,0
53,117.3094145940856,38.99472374162548,0,4.337130821186297,-0.1726040189453717,0
54,117.30931430076987,38.99472680297479,0,4.337071838442734,-2.94913717815e-05,0
55,117.30920673625819,38.994733106077625,0,4.661115116469974,0.16202163901362,0
56,117.30910044469273,38.994731068098915,0,4.594315569371606,-0.033399773549184,0
57,117.30899628670858,38.99473178399509,0,4.500900943302234,-0.0467073130346858,0
58,117.30889826919216,38.994737865818294,0,4.248867774473103,-0.1260165844145655,0
59,117.30879157941916,38.994735687938245,0,4.6117144868389826,0.1814233561829397,0
60,117.308687,38.994737,0,4.519523823417773,-0.046095331710605,0
61,117.30860182095631,38.99473414219807,0,3.684061899292647,-0.4177309620625629,0
62,117.30851716194852,38.99472407713259,0,3.7007164857848567,0.0083272932461049,0
63,117.30843441829033,38.994720445550236,0,3.5810967827168865,-0.0598098515339851,0
64,117.30834627737383,38.99471872133108,0,3.809825334000433,0.1143642756417733,0
65,117.30826322015689,38.99471688819205,0,3.590396475625214,-0.1097144291876095,0
66,117.30818026663782,38.994710542240114,0,3.6017911148144433,0.0056973195946146,0
67,117.30809190488165,38.99470748946669,0,3.821932797398012,0.1100708412917843,0
68,117.30800905635796,38.99470360627579,0,3.586436631950262,-0.117748082723875,0
69,117.30792519404149,38.994697317044555,0,3.6405703797211064,0.0270668738854223,0
70,117.30783832765306,38.99469626715949,0,3.7540010664989327,0.0567153433889132,0
71,117.30774705000455,38.994685978895376,0,3.9854220553225295,0.1157104944117984,0
72,117.3076640210749,38.994684953384265,0,3.588181996595886,-0.1986200293633218,0
73,117.30758022657314,38.994684450398765,0,3.620917830272208,0.016367916838161,0
74,117.30749349447223,38.99467339149239,0,3.797845919692778,0.0884640447102851,0
75,117.3074085376274,38.994672449478216,0,3.671409562699228,-0.0632181784967751,0
76,117.30732504509409,38.99466842120377,0,3.614707174329001,-0.0283511941851133,0
77,117.30723484384247,38.9946628406441,0,3.909979853837185,0.1476363397540918,0
78,117.30715253572029,38.99466274219917,0,3.5565878155626747,-0.1766960191372551,0
79,117.30707012989518,38.99465430305479,0,3.591584697457099,0.0174984409472121,0
80,117.306983,38.994652,0,3.767112569918576,0.0877639362307385,0
81,117.30690923398676,38.99465659045979,0,3.1976755068293725,-0.2847185315446017,0
82,117.30684482034178,38.994661902170805,0,2.7989755556841867,-0.1993499755725929,0
83,117.3067672042557,38.99466517592403,0,3.3587731225398665,0.2798987834278399,0
84,117.3066971495349,38.994670878389975,0,3.043663893253648,-0.1575546146431093,0
85,117.30663070694061,38.994671004066554,0,2.871032746512538,-0.086315573370555,0
86,117.30656041580794,38.994680913785054,0,3.0868875249725556,0.1079273892300088,0
87,117.30649208321579,38.994677507811254,0,2.958757784147355,-0.0640648704126003,0
88,117.306416214577,38.99469166159598,0,3.3714497028890102,0.2063459593708277,0
89,117.3063465823682,38.994689426218414,0,3.011414204503262,-0.1800177491928741,0
90,117.30627394325671,38.994691317866994,0,3.1405400788486824,0.0645629371727101,0
91,117.30620467886152,38.99469732041192,0,3.0115033820923935,-0.0645183483781444,0
92,117.30614049945092,38.99470159073918,0,2.783373922892592,-0.1140647295999009,0
93,117.30606526905021,38.99470667104693,0,3.26299692257314,0.2398114998402741,0
94,117.30599271160875,38.99471085396904,0,3.1438621070619073,-0.0595674077556163,0
95,117.30592966389995,38.9947209951978,0,2.7820605041912967,-0.1809008014353053,0
96,117.30585124781129,38.994720853984525,0,3.3884127994445983,0.3031761476266508,0
97,117.30578353271925,38.99472737058604,0,2.9483530183015083,-0.220029890571545,0
98,117.30571208349683,38.99472734682275,0,3.087361461128376,0.0695042214134338,0
99,117.30563914570189,38.994737039576044,0,3.197422554408301,0.0550305466399625,0
100,117.305572,38.994739,0,2.9034497262689087,-0.1469864140696961,0
101,117.30553681053296,38.99473518163926,0,1.5353044030736451,-0.6840726615976318,0
102,117.30549445697795,38.994729161580636,0,1.8604747931079155,0.1625851950171352,0
103,117.30545832110207,38.99473284296339,0,1.574808821702252,-0.1428329857028318,0
104,117.30541941713683,38.99473212847261,0,1.6815314240903407,0.0533613011940444,0
105,117.30537889605866,38.99472496676897,0,1.7956412139283022,0.0570548949189807,0
106,117.30534194014882,38.994718534331724,0,1.63644173296522,-0.0795997404815411,0
107,117.3052968937605,38.99471710879294,0,1.9480929981038746,0.1558256325693272,0
108,117.30526182503674,38.994712817031896,0,1.53401085074574,-0.2070410736790673,0
109,117.305226085474,38.99471453745026,0,1.5472862788094315,0.0066377140318458,0
110,117.30518965966625,38.9947097375419,0,1.5964425564641325,0.0245781388273505,0
111,117.30514267247909,38.994709418253265,0,2.0304209576948318,0.2169892006153497,0
112,117.30510538224266,38.99470619690673,0,1.6212553884513303,-0.2045827846217507,0
113,117.30506840880737,38.994707315509224,0,1.5988534521956006,-0.0112009681278649,0
114,117.30502960438966,38.994695757903884,0,1.7956696432639219,0.0984080955341606,0
115,117.30499697963549,38.99469591824031,0,1.4097628310575985,-0.1929534061031617,0
116,117.30495417356262,38.994689326916564,0,1.8856279693338154,0.2379325691381085,0
117,117.3049187408399,38.99469181735093,0,1.5373168515385496,-0.1741555588976329,0
118,117.30488099706545,38.99468545582603,0,1.668840213436535,0.0657616809489927,0
119,117.30483457434168,38.99468645525265,0,2.0067226835224563,0.1689412350429607,0
120,117.304799,38.994683,0,1.5491454069640513,-0.2287886382792025,0
121,117.3047707883818,38.994688046612715,0,1.2509135050771532,-0.1491159509434491,0
122,117.30474104593979,38.99469237741442,0,1.3075491941731547,0.0283178445480008,0
123,117.30471863038721,38.99470329017843,0,1.142924478429666,-0.0823123578717444,0
124,117.30468940897663,38.99470809076131,0,1.290574054964933,0.0738247882676335,0
125,117.30466102114902,38.994717990862554,0,1.3444863230030233,0.0269561340190452,0
126,117.30463799702403,38.99471927177966,0,0.9974311627876798,-0.1735275801076717,0
127,117.30460281508228,38.99472880325574,0,1.6099458353372467,0.3062573362747834,0
128,117.30457916606481,38.99473767012001,0,1.1345828068774257,-0.2376815142299105,0
129,117.30455409185626,38.99474032284747,0,1.093462456191138,-0.0205601753431439,0
130,117.30452620815225,38.994751042402825,0,1.344211516122617,0.1253745299657395,0
131,117.30450042992706,38.994752444206014,0,1.1166144659205748,-0.1137985251010211,0
132,117.30447517763623,38.9947610308362,0,1.191027915028445,0.0372067245539351,0
133,117.30444650917792,38.99477251732874,0,1.393703732773694,0.1013379088726245,0
134,117.30441560717111,38.99477451923642,0,1.3399228864058086,-0.0268904231839427,0
135,117.30438996622863,38.994783820575904,0,1.2227006906427573,-0.0586110978815256,0
136,117.30436300909913,38.994795683996124,0,1.3386088161758387,0.0579540627665407,0
137,117.30433068373989,38.99479714511701,0,1.3991558534087913,0.0302735186164763,0
138,117.30430356939887,38.994804214936046,0,1.235800897734713,-0.0816774778370392,0
139,117.3042803788236,38.994806992041156,0,1.0139019269602139,-0.1109494853872496,0
140,117.304252,38.994818,0,1.3705050185157157,0.1783015457777509,0
141,117.30421273573747,38.99482079176357,0,1.7037137892696814,0.1666043853769829,0
142,117.30417916774636,38.994819956993894,0,1.4512322255644392,-0.1262407818526211,0
143,117.30414278397338,38.994820379983345,0,1.5723371603943401,0.0605524674149505,0
144,117.3041022796023,38.99482216601742,0,1.7530290006135372,0.0903459201095985,0
145,117.3040607502386,38.99481606036883,0,1.826329631624588,0.0366503155055254,0
146,117.30402057114918,38.99482480730648,0,1.8029815531387985,-0.0116740392428948,0
147,117.30398220321604,38.99482532451851,0,1.6581470906221532,-0.0724172312583227,0
148,117.30394597178805,38.99481930226897,0,1.600981303965294,-0.0285828933284296,0
149,117.30391510670997,38.99482068484404,0,1.335908978992234,-0.13253616248653,0
150,117.3038777850771,38.9948220965625,0,1.614595490451909,0.1393432557298375,0
151,117.30384018707616,38.994824991226594,0,1.6325803214482586,0.0089924154981748,0
152,117.30380147325349,38.994827680601674,0,1.6795127896486086,0.023466234100175,0
153,117.30375532466184,38.99482462232236,0,2.0013398879438657,0.1609135491476286,0
154,117.30371748789146,38.994825392107096,0,1.6355059894484545,-0.1829169492477056,0
155,117.3036813611847,38.99482462988165,0,1.561628317915904,-0.0369388357662752,0
156,117.30364431524359,38.99483031600351,0,1.631691523098554,0.035031602591325,0
157,117.30361226747685,38.99483209533949,0,1.388329068592275,-0.1216812272531396,0
158,117.30357428742128,38.994830299471495,0,1.6441716709674568,0.1279213011875909,0
159,117.30353229918123,38.99483160098809,0,1.8157752815815278,0.0858018053070355,0
160,117.303495,38.994829,0,1.6181906597259457,-0.0987923109277911,0
161,117.30346224781086,38.994851359059055,0,1.8836704528000536,0.132739896537054,0
162,117.3034260939046,38.994882977297706,0,2.3517537842783645,0.2340416657391554,0
163,117.30339588468236,38.99491084282596,0,2.025866228773775,-0.1629437777522946,0
164,117.30337069132908,38.99493116257374,0,1.5688743255438566,-0.2284959516149593,0
165,117.30333478862437,38.99496208134419,0,2.315541366228301,0.3733335203422222,0
166,117.30330003001238,38.994980816000485,0,1.8277677900130076,-0.2438867881076467,0
167,117.30327090438362,38.99500581519219,0,1.8750191498356348,0.0236256799113136,0
168,117.30324106382068,38.995034618408056,0,2.055978093454231,0.0904794718092982,0
169,117.30320478938077,38.99506632742697,0,2.3589835947867677,0.1515027506662683,0
170,117.30317287524903,38.995091457946984,0,1.9631217568864867,-0.1979309189501405,0
171,117.30313503674697,38.995115091757576,0,2.0975736102052753,0.0672259266593943,0
172,117.30311134119216,38.99514115390041,0,1.7742392810008494,-0.161667164602213,0
173,117.303074518538,38.99516542642907,0,2.0863323618685063,0.1560465404338285,0
174,117.30304750471227,38.995193691647756,0,1.9575656618785788,-0.0643833499949638,0
175,117.30300863532848,38.99522015261944,0,2.2327630124275935,0.1375986752745073,0
176,117.30298204206059,38.9952404058859,0,1.6088441028299578,-0.3119594547988178,0
177,117.30294255135652,38.99527188828302,0,2.444484754882281,0.4178203260261615,0
178,117.30291039946395,38.9952975346091,0,1.990787573018792,-0.2268485909317444,0
179,117.30288111216353,38.99532408861396,0,1.9445005379043954,-0.0231435175571983,0
180,117.302849,38.995348,0,1.9216387533827068,-0.0114308922608443,0
181,117.30279672216491,38.99541260816326,0,4.2433012375853245,1.1608312421013087,0
182,117.30275148803574,38.995475138208654,0,3.988293923596395,-0.1275036569944648,0
183,117.3026963192264,38.99553570162194,0,4.12560116944479,0.0686536229241976,0
184,117.30265183505267,38.995601567062224,0,4.135770797432284,0.0050848139937467,0
185,117.30259735224375,38.99566760472704,0,4.361465155745188,0.1128471791564523,0
186,117.3025551763308,38.995731147362335,0,3.975167449070037,-0.1931488533375756,0
187,117.30249950269562,38.99579737404562,0,4.3982447479015345,0.2115386494157487,0
188,117.30245441481031,38.99586015648906,0,3.9974430430963883,-0.2004008524025731,0
189,117.30240064046917,38.99591781704629,0,3.9593005404080204,-0.019071251344184,0
190,117.3023508462515,38.995983612462034,0,4.243909546548109,0.1423045030700445,0
191,117.30230148888954,38.99604387675914,0,3.9717287735369116,-0.1360903865055989,0
192,117.30225276764965,38.996114743790756,0,4.467193316814247,0.2477322716386676,0
193,117.30220107007614,38.99617806907709,0,4.169596147890657,-0.1487985844617947,0
194,117.3021584112066,38.996241921207705,0,4.000035059007031,-0.0847805444418133,0
195,117.30210629534386,38.99630497504438,0,4.16659917830106,0.0832820596470145,0
196,117.30205935844164,38.996362541619874,0,3.7890424609244957,-0.1887783586882821,0
197,117.30200833116577,38.99642561795407,0,4.14242298317116,0.1766902611233323,0
198,117.30195101149766,38.99649018653167,0,4.361344988134252,0.1094610024815457,0
199,117.30190265870382,38.99655205322881,0,4.024454328389295,-0.1684453298724784,0
200,117.301856,38.99662,0,4.281987770263458,0.1287667209370817,0
201,117.30188295988516,38.996656792090484,0,2.3539969435347734,-0.9639954133643425,0
202,117.30191095913233,38.996701531637136,0,2.766021239382235,0.2060121479237309,0
203,117.30194347013266,38.99674183192688,0,2.644553866223912,-0.0607336865791617,0
204,117.30196753699218,38.99678746098226,0,2.7417285749778952,0.0485873543769917,0
205,117.30199355630765,38.99683024161059,0,2.6308235777215527,-0.0554524986281713,0
206,117.30201952657772,38.996864886701715,0,2.2292153786151787,-0.200804099553187,0
207,117.30204864874135,38.99690357649804,0,2.492081891039908,0.1314332562123646,0
208,117.30207701841614,38.99694833208577,0,2.773857547553206,0.140887828256649,0
209,117.30210088018396,38.99698548549895,0,2.30865972207394,-0.2325989127396328,0
210,117.30212875796258,38.99702647467897,0,2.5776661057840893,0.1345031918550745,0
211,117.30216445523874,38.99706917182714,0,2.83095869338609,0.1266462938010005,0
212,117.30218665158134,38.997117591916265,0,2.8577772229049514,0.0134092647594306,0
213,117.30221963014867,38.99715137188228,0,2.3574853145251664,-0.2501459541898925,0
214,117.30224116287383,38.99719618440507,0,2.6595200328451876,0.1510173591600106,0
215,117.30227202915437,38.99723983037,0,2.7689661801741794,0.0547230736644959,0
216,117.30230275126065,38.997280399856976,0,2.6171999193359583,-0.0758831304191105,0
217,117.3023243219392,38.99731324612283,0,2.0502696596808057,-0.2834651298275763,0
218,117.30235744849674,38.997358418936294,0,2.8907448062552925,0.4202375732872434,0
219,117.30238076347776,38.99740207841315,0,2.628106608333589,-0.1313190989608517,0
220,117.302409,38.997441,0,2.4841925472478676,-0.0719570305428607,0
221,117.30250012096573,38.99746342532597,0,4.12992991687177,0.8228686848119513,0
222,117.30260306689621,38.99749096820284,0,4.704382826306476,0.2872264547173531,0
223,117.30269016641986,38.997522665548985,0,4.155645849087889,-0.2743684886092939,0
224,117.3027861895046,38.997553832356836,0,4.496350691075137,0.1703524209936242,0
225,117.3028825099819,38.997572058864165,0,4.2834852855805705,-0.1064327027472833,0
226,117.3029760636656,38.99760612756107,0,4.464110749241974,0.0903127318307018,0
227,117.30307419637138,38.99763252663288,0,4.487033585840037,0.0114614182990316,0
228,117.30316808345819,38.997660874751034,0,4.352152562648023,-0.0674405115960073,0
229,117.30327011999876,38.99768929296292,0,4.683427969447365,0.1656377033996712,0
230,117.3033652863196,38.99770941172125,0,4.261437285122337,-0.2109953421625139,0
231,117.30346004144225,38.99773423370862,0,4.320576819267864,0.0295697670727635,0
232,117.30355544640199,38.99776492095276,0,4.461441637357495,0.0704324090448156,0
233,117.30365005842441,38.99779400727588,0,4.396288297454259,-0.0325766699516183,0
234,117.30373932925022,38.997816031441076,0,4.04696678488525,-0.1746607562845042,0
235,117.30383804233077,38.997852193748905,0,4.7153673467350385,0.3342002809248941,0
236,117.30392810613525,38.99787842987041,0,4.15592834629618,-0.2797195002194295,0
237,117.30402960314875,38.997904456263484,0,4.618098773407573,0.2310852135556969,0
238,117.30412564431863,38.99793338041249,0,4.450494891331106,-0.0838019410382338,0
239,117.30421769358,38.997957191376045,0,4.191848628198407,-0.1293231315663492,0
240,117.304313,38.997983,0,4.360883087707866,0.0845172297547294,0
241,117.30434599178687,38.99798624854763,0,1.4369240325308557,-1.4619795275885052,0
242,117.30437398967828,38.99799755406209,0,1.3632965084642308,-0.0368137620333124,0
243,117.30440862122478,38.99799800163801,0,1.496586379304357,0.0666449354200631,0
