,LongitudeGPS,LatitudeGPS,TrackID,Velocity,Acceleration,Type
0,117.31579971090811,38.998495575400376,9,0.0,0.0,1
1,117.31573085942776,38.99862050430561,9,15.112047808849438,15.112047808849438,1
2,117.3156612082273,38.99873333236391,9,13.915033308328507,-1.1970145005209307,1
3,117.31559543336691,38.99885663908032,9,14.842564785300587,0.9275314769720797,1
4,117.31552485099874,38.998966395888075,9,13.643703296616064,-1.198861488684523,1
5,117.31546489760238,38.99909204179633,9,14.900874701080458,1.257171404464394,1
6,117.31539668446918,38.99920664277221,9,14.040391387508432,-0.8604833135720256,1
7,117.31532779462823,38.99932348912787,9,14.291637045507901,0.2512456579994691,1
8,117.31525391321539,38.99944516656372,9,14.96062614760826,0.6689891021003582,1
9,117.31518908804388,38.9995647875767,9,14.432753513477149,-0.5278726341311106,1
10,117.31511663120398,38.99967863705412,9,14.123288586820134,-0.3094649266570144,1
11,117.31505099459531,38.99979238668911,9,13.861927219670624,-0.2613613671495099,1
12,117.31498232864517,38.999915699376345,9,14.94059742984647,1.0786702101758454,1
13,117.3149152451075,39.0000304332469,9,14.013113522822195,-0.9274839070242749,1
14,117.3148475463361,39.00014685913225,9,14.20642334529253,0.1933098224703347,1
15,117.314781,39.000267,9,14.544185674317953,0.3377623290254235,1
16,117.31462159004093,39.00032100084411,9,15.027124766451784,0.4829390921338312,1
17,117.31445240730474,39.00037974698942,9,16.012781640837357,0.9856568743855725,1
18,117.31429078388925,39.00044474817254,9,15.725959306904354,-0.2868223339330029,1
19,117.31413198019824,39.000496405608494,9,14.876541629508365,-0.849417677395989,1
20,117.31396975714556,39.000553320629166,9,15.380705715253667,0.5041640857453018,1
21,117.31380950860549,39.00061150412013,9,15.284512015792293,-0.0961936994613737,1
22,117.31364171601209,39.00067768778057,9,16.260315889503854,0.9758038737115609,1
23,117.31348376344867,39.000729531448144,9,14.816726265581972,-1.4435896239218824,1
24,117.3133235709216,39.000791341449876,9,15.45515246417822,0.6384261985962478,1
25,117.31315646611422,39.00084850719359,9,15.777304087611276,0.3221516234330561,1
26,117.31299767934694,39.000899862042985,9,14.862160330509072,-0.9151437571022036,1
27,117.31283189797041,39.00095869929071,9,15.748980265788516,0.8868199352794441,1
28,117.3126755281152,39.001018149316856,9,15.042803138060462,-0.7061771277280542,1
29,117.31251133937589,39.001078541579545,9,15.697065139462232,0.6542620014017704,1
30,117.31234778334886,39.00113740244549,9,15.575333822130048,-0.1217313173321841,1
31,117.31219045999399,39.00119070853731,9,14.830810684317086,-0.744523137812962,1
32,117.31202500874443,39.00125137873252,9,15.808876178329944,0.9780654940128581,1
33,117.31186355830162,39.00131234023712,9,15.51103302980373,-0.2978431485262139,1
34,117.31170014720148,39.001372252602664,9,15.613456877277882,0.1024238474741512,1
35,117.31153527440742,39.001424778349055,9,15.397851660138482,-0.2156052171393998,1
36,117.3113752148264,39.00148840517822,9,15.535695421298808,0.137843761160326,1
37,117.31121351856963,39.00154312939927,9,15.24015602637629,-0.2955393949225176,1
38,117.31105393694043,39.001595999479385,9,14.990742932085428,-0.2494130942908619,1
39,117.3108884808,39.00166000748158,9,15.971090430929147,0.9803474988437184,1
40,117.31072447647705,39.001716045255094,9,15.481396828185174,-0.4896936027439729,1
41,117.31056813191196,39.00177700067932,9,15.115028650075493,-0.3663681781096813,1
42,117.31040057116726,39.00182805160618,9,15.552335462670257,0.4373068125947643,1
43,117.31024328262222,39.00188915389288,9,15.19525874333246,-0.3570767193377975,1
44,117.31007836815988,39.001949454844315,9,15.749287573201524,0.5540288298690648,1
45,117.309915,39.002006,9,15.453904778297183,-0.2953827949043415,1
46,117.30979968841612,39.00191083653144,9,14.534796652906792,-0.919108125390391,1
47,117.30968542488706,39.001826922666524,9,13.585117342962715,-0.9496793099440772,1
48,117.30957962754042,39.00173065977066,9,14.076737731528738,0.4916203885660231,1
49,117.30946274410059,39.001637920633144,9,14.434472770151231,0.3577350386224936,1
50,117.30935649249783,39.00155124361766,9,13.311337208012626,-1.1231355621386054,1
51,117.309243125511,39.001458097048534,9,14.256403076733102,0.9450658687204765,1
52,117.3091269169657,39.001370618556706,9,13.980628590867692,-0.2757744858654103,1
53,117.30901735812375,39.00127654829528,9,14.10831367142459,0.1276850805568976,1
54,117.30889930381461,39.00118199473223,9,14.64961304254472,0.5412993711201306,1
55,117.30879204507661,39.00109235614102,9,13.610833875053508,-1.038779167491212,1
56,117.30868010900019,39.00100204746858,9,13.942801391437095,0.3319675163835871,1
57,117.30856257273041,39.00090970070827,9,14.443023647414426,0.5002222559773308,1
58,117.3084575373409,39.000821229814676,9,13.385042097222886,-1.0579815501915402,1
59,117.30834675062695,39.000730111397786,9,13.939415607496755,0.5543735102738694,1
60,117.30822826143269,39.00064337423947,9,14.066277926829104,0.1268623193323482,1
61,117.30812150823677,39.00054841530284,9,14.02110812581912,-0.0451698010099832,1
62,117.30801040905753,39.00045596639257,9,14.065757769761875,0.0446496439427548,1
63,117.30789660878132,39.00036395351962,9,14.191108506407733,0.1253507366458582,1
64,117.30778486762846,39.00027755353084,9,13.621235029034837,-0.5698734773728962,1
65,117.30766637293797,39.000188208164836,9,14.267083706345886,0.645848677311049,1
66,117.3075566551671,39.000095498743,9,14.005892314423223,-0.2611913919226634,1
67,117.3074410554542,39.00000342762539,9,14.303972354189655,0.2980800397664325,1
68,117.30733413599188,38.99991657783262,9,13.365232152060601,-0.9387402021290541,1
69,117.30721714347311,38.99982218906947,9,14.572799768612951,1.2075676165523497,1
70,117.30710942664332,38.99972977124915,9,13.865408331450405,-0.7073914371625456,1
71,117.30699027485686,38.99963547496179,9,14.695543291324528,0.8301349598741226,1
72,117.30688382936145,38.99955027298294,9,13.204913389634896,-1.4906299016896316,1
73,117.30677324578733,38.99945403049556,9,14.347304927882112,1.1423915382472156,1
74,117.30665406103375,38.99936717216453,9,14.119439092997414,-0.2278658348846978,1
75,117.306546,38.999275,9,13.865230934931752,-0.2542081580656621,1
76,117.30665632357751,38.999184279261975,9,13.879931017755329,0.0147000828235768,1
77,117.30677957703543,38.99910142498545,9,14.08273858190313,0.2028075641478004,1
78,117.3068947407875,38.99901390774544,9,13.919170964128902,-0.1635676177742269,1
79,117.3070089875978,38.9989257236029,9,13.914793686722014,-0.0043772774068884,1
80,117.30711802627563,38.998836764659615,9,13.661423977625265,-0.2533697090967486,1
81,117.30723344580163,38.998747734897435,9,14.05297648691356,0.3915525092882941,1
82,117.30735165871657,38.998660757316756,9,14.067483163443733,0.0145066765301731,1
83,117.30746651627273,38.99857191925408,9,14.003523025042677,-0.0639601384010557,1
84,117.30757708415545,38.99848705371842,9,13.429282158109473,-0.574240866933204,1
85,117.30769616977152,38.998398324643134,9,14.25645395418472,0.8271717960752465,1
86,117.30781001019636,38.99831031912613,9,13.875944840390895,-0.3805091137938241,1
87,117.30792389749764,38.99821598570404,9,14.383603442075948,0.5076586016850531,1
88,117.3080391494959,38.99813514826858,9,13.416147893059517,-0.9674555490164316,1
89,117.3081507311129,38.99804016094921,9,14.301640469448413,0.8854925763888968,1
90,117.30826640700232,38.997959057567286,9,13.46317350067881,-0.8384669687696036,1
91,117.30838841739923,38.99786544298425,9,14.816502521504377,1.3533290208255675,1
92,117.30849661372154,38.99777513992408,9,13.72041480032497,-1.0960877211794067,1
93,117.30861521315757,38.99769456976009,9,13.612744881424844,-0.1076699189001271,1
94,117.30873258243459,38.997608351499366,9,13.956608102804825,0.3438632213799817,1
95,117.3088461485867,38.997512971595405,9,14.449884607341032,0.4932765045362064,1
96,117.30895782647079,38.997427114180525,9,13.575138861475581,-0.8747457458654502,1
97,117.3090747404942,38.99734444093965,9,13.659734471600398,0.0845956101248166,1
98,117.30918560974268,38.9972523375196,9,14.024420735471178,0.3646862638707802,1
99,117.3093101772396,38.9971614579194,9,14.764853061795973,0.7404323263247949,1
100,117.30941823298676,38.99707196892178,9,13.646055389653414,-1.1187976721425592,1
101,117.30953871910134,38.99699002056881,9,13.836437058301708,0.1903816686482944,1
102,117.30964871093202,38.99690429912458,9,13.461282268367016,-0.3751547899346921,1
103,117.30976939511545,38.99680846838938,9,14.910377408387356,1.44909514002034,1
104,117.30988167076816,38.99672823326488,9,13.181046164180183,-1.7293312442071738,1
105,117.309995,38.996637,9,14.100793376693087,0.9197472125129043,1
106,117.31010055157417,38.99655307687268,9,13.049421028823811,-1.0513723478692754,1
107,117.3102107585244,38.996459688579456,9,14.0904142036265,1.0409931748026882,1
108,117.3103218269728,38.99637493788336,9,13.451348785264232,-0.6390654183622679,1
109,117.31043505764788,38.99628867524754,9,13.702479717888696,0.2511309326244646,1
110,117.31054537664966,38.99619914845691,9,13.783749155317858,0.081269437429162,1
111,117.31066092730312,38.99610683009995,9,14.321089097016506,0.5373399416986473,1
112,117.31077015644192,38.99602254919886,9,13.301568207745195,-1.0195208892713108,1
113,117.31088078937262,38.99593608021543,9,13.559367862760107,0.257799655014912,1
114,117.31098763905919,38.995840635857306,9,14.067675972498046,0.5083081097379392,1
115,117.31110037343703,38.995752262581846,9,13.837602954113708,-0.2300730183843385,1
116,117.3112085364682,38.99566598800164,9,13.39425182516715,-0.4433511289465581,1
117,117.31131411020506,38.99558021576324,9,13.198650047667755,-0.1956017774993946,1
118,117.31142390972055,38.995490737137786,9,13.748925496907948,0.5502754492401927,1
119,117.31153264132956,38.99540539322259,9,13.354880326714428,-0.3940451701935199,1
120,117.31164938205936,38.99531585621257,9,14.174150451844621,0.8192701251301937,1
121,117.311762365677,38.99523052037396,9,13.61532348705387,-0.558826964790752,1
122,117.31187076359927,38.99514353118407,9,13.465440231295906,-0.1498832557579632,1
123,117.31197693891555,38.99505316191279,9,13.607670686722393,0.1422304554264873,1
124,117.3120923430521,38.994965386850986,9,13.95447571753926,0.3468050308168671,1
125,117.3121981714526,38.99487952559463,9,13.221081662648423,-0.7333940548908373,1
126,117.31231346428173,38.9947901852975,9,14.069961836195864,0.8488801735474407,1
127,117.31242112797341,38.994694689806835,9,14.118325514435458,0.0483636782395944,1
128,117.31252576911288,38.994613844920345,9,12.75114040267242,-1.367185111763039,1
129,117.31264209396949,38.99452097649627,9,14.411742289689373,1.6606018870169539,1
130,117.31274497553335,38.99443147616125,9,13.345220648601122,-1.0665216410882508,1
131,117.31285963701195,38.99434690717626,9,13.660935447714532,0.3157147991134099,1
132,117.31297349746131,38.99425889648026,9,13.877977274119225,0.2170418264046923,1
133,117.31307737952208,38.994169176286434,9,13.421166878760381,-0.4568103953588434,1
134,117.31318566892996,38.99408529074274,9,13.213170236392939,-0.2079966423674424,1
135,117.3133,38.993994,9,14.165899857766428,0.9527296213734893,1
136,117.31319612979595,38.99390385004514,9,13.456065643542713,-0.7098342142237151,1
137,117.313087306978,38.993811258930414,9,13.944502833966835,0.488437190424122,1
138,117.31297840713688,38.99371961258903,9,13.871642820032854,-0.0728600139339814,1
139,117.31287103708583,38.993627513032095,9,13.819598975685883,-0.0520438443469704,1
140,117.31276075762284,38.993539497383495,9,13.66075349981836,-0.1588454758675226,1
141,117.312649711357,38.99344142625769,9,14.526526905914855,0.8657734060964941,1
142,117.31254154889835,38.99335004579156,9,13.806747213531054,-0.7197796923838009,1
143,117.31243955098566,38.99326650494057,9,12.806045891733765,-1.0007013217972887,1
144,117.31232515741371,38.993174179196906,9,14.252421087324162,1.446375195590397,1
145,117.31222477126205,38.99307960610013,9,13.632854112913563,-0.6195669744105992,1
146,117.31211582510103,38.99298593213222,9,14.040857997064089,0.408003884150526,1
147,117.3120024519889,38.992895929512514,9,14.00568160513868,-0.0351763919254093,1
148,117.31189381832,38.99280863794688,9,13.50398447600553,-0.5016971291331505,1
149,117.3117900903704,38.99271526229923,9,13.717414853780252,0.2134303777747224,1
150,117.3116858792992,38.99262039225732,9,13.870698186212035,0.1532833324317835,1
151,117.31157130230267,38.99253313120638,9,13.863657267772274,-0.0070409184397615,1
152,117.3114670399697,38.99243776626178,9,13.915479834642754,0.0518225668704808,1
153,117.31135717723078,38.99234864050719,9,13.724628444905447,-0.1908513897373076,1
154,117.31124812318019,38.99225812330128,9,13.78890834741069,0.064279902505243,1
155,117.31114718376219,38.99216752998167,9,13.325805659087607,-0.4631026883230831,1
156,117.31103947434515,38.99207018112161,9,14.276772808177501,0.9509671490898945,1
157,117.3109278925124,38.99198480286915,9,13.532333965184614,-0.7444388429928868,1
158,117.3108172930139,38.99188811450356,9,14.385917370693958,0.8535834055093439,1
159,117.31071065243574,38.99180270021096,9,13.234298046856962,-1.1516193238369965,1
160,117.31060843659809,38.991707904346285,9,13.753110673837275,0.5188126269803135,1
161,117.31050126432264,38.991619476022734,9,13.508319866103818,-0.2447908077334571,1
162,117.3103851685,38.99152877982632,9,14.225999500829673,0.7176796347258545,1
163,117.31028225197372,38.991434739736235,9,13.727987654057928,-0.4980118467717443,1
164,117.31017624853163,38.99133783009695,9,14.143898128166573,0.4159104741086441,1
165,117.310065,38.991251,9,13.625805165449204,-0.5180929627173683,1
166,117.3098981566578,38.99130664971813,9,15.691165886439912,2.065360720990707,1
167,117.30973472104992,38.991359504265894,9,15.298878120744629,-0.3922877656952828,1
168,117.30957162234075,38.991409384336315,9,15.147784707914706,-0.1510934128299226,1
169,117.30940151957363,38.991459425623866,9,15.718965131061523,0.5711804231468172,1
170,117.30923866788379,38.991516809955364,9,15.453346932338452,-0.2656181987230717,1
171,117.3090702116403,38.991562757519645,9,15.429287882040965,-0.0240590502974865,1
172,117.30890402318683,38.99162249074215,9,15.824267957649706,0.3949800756087409,1
173,117.30873995490555,38.99167343318667,9,15.269171485283739,-0.5550964723659675,1
174,117.30857015201663,38.99172431414661,9,15.728022080694785,0.4588505954110467,1
175,117.308413861102,38.99177278059754,9,14.542824171526117,-1.185197909168668,1
176,117.30824017398639,38.99182972193102,9,16.291556901931504,1.7487327304053863,1
177,117.3080757894033,38.99187816705571,9,15.193865623817228,-1.0976912781142758,1
178,117.30790981430356,38.991938173080754,9,15.820245545555025,0.6263799217377972,1
179,117.30774561416081,38.991984274161965,9,15.088409182928388,-0.7318363626266375,1
180,117.30758557416354,38.99204113685549,9,15.208059442931235,0.1196502600028477,1
181,117.30741762502122,38.99208888111839,9,15.455321389025888,0.2472619460946532,1
182,117.30725199204512,38.99215119905588,9,15.903716837625623,0.4483954485997348,1
183,117.30708335317418,38.992202494394164,9,15.650839648104494,-0.2528771895211293,1
184,117.30692140771355,38.99225568554702,9,15.194421396185358,-0.4564182519191355,1
185,117.3067547709015,38.992303829717265,9,15.364251024914937,0.1698296287295786,1
186,117.3065826302221,38.992356608190775,9,15.992798147941377,0.6285471230264399,1
187,117.30642127341258,38.9924114318848,9,15.219343877440803,-0.773454270500574,1
188,117.3062543371985,38.992466576552374,9,15.676273021989346,0.4569291445485426,1
189,117.30608822707718,38.99251365326743,9,15.280485138393413,-0.3957878835959328,1
190,117.3059290828756,38.99256864966922,9,15.052090703675967,-0.2283944347174458,1
191,117.30576138907911,38.99261587686987,9,15.414814958171435,0.3627242544954683,1
192,117.3055944788464,38.992669139149015,9,15.59347437470319,0.1786594165317545,1
193,117.30543242439875,38.99272729225029,9,15.42603901456351,-0.1674353601396792,1
194,117.30526586416813,38.99277433490285,9,15.315693456092403,-0.1103455584711082,1
195,117.305097,38.992831,9,15.89593706893375,0.5802436128413468,1
196,117.30502786780787,38.992955553511564,9,15.083467439187116,-0.8124696297466336,1
197,117.30496091300826,38.99308411295171,9,15.421884421000819,0.3384169818137028,1
198,117.30489927006505,38.993211414757354,9,15.124610037696552,-0.2972743833042664,1
199,117.30483098729125,38.993342482270364,9,15.723448091605249,0.5988380539086968,1
200,117.30475966163861,38.993464419205715,9,14.894195416101761,-0.8292526755034881,1
201,117.30469429984993,38.993591674959546,9,15.236016723337382,0.3418213072356213,1
202,117.30462972536587,38.99371501499383,9,14.806734795989449,-0.4292819273479331,1
203,117.30455413211344,38.99384738613644,9,16.103672561296307,1.2969377653068577,1
204,117.30449129182176,38.99397397901001,9,15.087774346861531,-1.0158982144347757,1
205,117.30442193156426,38.99410249145791,9,15.496231675178366,0.4084573283168353,1
206,117.30435898287685,38.99422248005663,9,14.408587040519262,-1.0876446346591049,1
207,117.30428620602432,38.99435003123556,9,15.51504132525013,1.1064542847308676,1
208,117.30421689226019,38.99448446682948,9,16.10409331128187,0.5890519860317394,1
209,117.30414995705077,38.99460610048685,9,14.710160306836686,-1.3939330044451825,1
210,117.3040898882977,38.994736120882884,9,15.361352093822452,0.6511917869857662,1
211,117.30401585776315,38.99486382273386,9,15.574532147945309,0.2131800541228568,1
212,117.30394640575322,38.99498306039227,9,14.553911236633999,-1.02062091131131,1
213,117.30388183368527,38.99511210427593,9,15.395941169006417,0.8420299323724176,1
214,117.30381674274534,38.995243290392416,9,15.634261528786043,0.2383203597796264,1
215,117.30374445998982,38.995366231620096,9,15.030046261323063,-0.6042152674629797,1
216,117.30368458114118,38.995496144058905,9,15.344493330062898,0.3144470687398346,1
217,117.30361748882945,38.99561756557881,9,14.693794527472178,-0.6506988025907194,1
218,117.30354974710995,38.995752657035496,9,16.121944225072685,1.4281496976005066,1
219,117.30348304858435,38.99587445777849,9,14.719181724906598,-1.4027625001660873,1
220,117.30341332828306,38.99600433625526,9,15.648305615915293,0.929123891008695,1
221,117.30334807946947,38.99612977600079,9,15.044924997998583,-0.6033806179167094,1
222,117.30327495767749,38.996251529347184,9,14.940499768526252,-0.1044252294723318,1
223,117.30320728716599,38.99638687845417,9,16.146392570690207,1.2058928021639552,1
224,117.30314495640178,38.99650902922886,9,14.611661053669906,-1.534731517020301,1
225,117.303075,38.996637,9,15.46069509859755,0.8490340449276452,1
226,117.3031475590281,38.996764427281846,9,15.494733947816641,0.0340388492190904,1
227,117.30322198643243,38.99688129919984,9,14.500143292503868,-0.9945906553127735,1
228,117.30329037648491,38.99700964230423,9,15.44649953696147,0.9463562444576024,1
229,117.30335545140801,38.99713158716545,9,14.679566739093543,-0.766932797867927,1
230,117.30342601248516,38.9972531323404,9,14.827118280718928,0.1475515416253845,1
231,117.30349844460551,38.997374835356105,9,14.910267747506445,0.0831494667875177,1
232,117.30356844409557,38.99750102218234,9,15.27976496283417,0.3694972153277245,1
233,117.3036413467542,38.99761612808804,9,14.265704195547071,-1.0140607672870985,1
234,117.30371820975321,38.997743053202704,9,15.598370232691506,1.3326660371444348,1
235,117.30378639949598,38.99786304380713,9,14.58571374050888,-1.0126564921826269,1
236,117.30385720444292,38.997989718375045,9,15.357166678481565,0.7714529379726862,1
237,117.30392240858743,38.998109832413306,9,14.496036380623543,-0.861130297858022,1
238,117.30399707902252,38.99824037686893,9,15.88550563128791,1.3894692506643658,1
239,117.3040727247771,38.998358205238496,9,14.642178755298366,-1.2433268759895437,1
240,117.30413579297735,38.998484323571496,9,15.045554814163888,0.403376058865522,1
241,117.30420720523838,38.99860068662751,9,14.335302375626286,-0.7102524385376014,1
