,LongitudeGPS,LatitudeGPS,TrackID,Velocity,Acceleration,Type
0,117.31102305815624,38.9978089176533,7,0.0,0.0,1
1,117.31097199224006,38.99787005417863,7,16.209647451554652,32.419294903109304,1
2,117.3109231995435,38.99793193888708,7,16.140749422423642,-0.137796058262019,1
3,117.31087117715931,38.997992290020655,7,16.154837910669663,0.0281769764920412,1
4,117.31081934305563,38.99804947587245,7,15.556174959534456,-1.1973259022704141,1
5,117.31076146433877,38.998109167092956,7,16.621869068449055,2.1313882178291976,1
6,117.31070298895683,38.998166529751614,7,16.275126998985268,-0.6934841389275732,1
7,117.31064097096927,38.99822537453963,7,16.91593343479141,1.2816128716122819,1
8,117.31058064329184,38.99827842827098,7,15.745549072523758,-2.3407687245353017,1
9,117.3105196825658,38.99833478222542,7,16.372942182047552,1.2547862190475882,1
10,117.31045273734404,38.9983850095386,7,16.08239231800826,-0.5810997280785841,1
11,117.31038595689115,38.99843751414848,7,16.41814679302361,0.6715089500306988,1
12,117.31031591169423,38.99848686847723,7,16.341016688798707,-0.1542602084498057,1
13,117.31024855640533,38.99853539260541,7,15.873548266549353,-0.9349368444987078,1
14,117.31017480136711,38.99858367563598,7,16.667058320666,1.5870201082332969,1
15,117.31010181138747,38.99862828870858,7,16.049169000139184,-1.2357786410536349,1
16,117.31002607159421,38.99867420594634,7,16.602154530364153,1.1059710604499386,1
17,117.30995111860452,38.99871712112384,7,16.090381087519386,-1.0235468856895338,1
18,117.3098723638014,38.99875572984183,7,16.09324249945916,0.0057228238795446,1
19,117.30979236355142,38.998798180592935,7,16.742192129687606,1.2978992604568944,1
20,117.30971167306632,38.9988355077842,7,16.22955329984959,-1.0252776596760285,1
21,117.30963083259527,38.99887448053985,7,16.441762772531064,0.4244189453629446,1
22,117.30954945463311,38.99890968324213,7,16.09674936820471,-0.6900268086527106,1
23,117.30946591372762,38.998943320162624,7,16.261288763554273,0.3290787906991284,1
24,117.30938025601678,38.9989761187595,7,16.50373863553251,0.4848997439564755,1
25,117.3092969201134,38.99900355693844,7,15.642355859591634,-1.7227655518817535,1
26,117.30921058772884,38.999030976619544,7,16.118917752999376,0.9531237868154854,1
27,117.30912195731825,38.999060145588984,7,16.6350600164981,1.0322845269974508,1
28,117.30903416997475,38.99908587481293,7,16.215517258487278,-0.8390855160216475,1
29,117.3089442192768,38.99910957129534,7,16.41522161148918,0.3994087060038041,1
30,117.30885358718926,38.999130845111196,7,16.36296392191799,-0.1045153791423772,1
31,117.30876599564468,38.999150102375175,7,15.73268305249404,-1.2605617388479011,1
32,117.30867381548391,38.99916726505773,7,16.382454587690525,1.2995430703929678,1
33,117.30858197225426,38.99918555460497,7,16.386226625599758,0.0075440758184655,1
34,117.30848890495515,38.99919756392282,7,16.305165725090873,-0.1621218010177685,1
35,117.30839678493513,38.999213009703396,7,16.2875568670436,-0.0352177160945431,1
36,117.30830289327999,38.9992225167468,7,16.364570104953064,0.1540264758189238,1
37,117.30820995845309,38.99923131023847,7,16.180653661569362,-0.3678328867674026,1
38,117.30811543939177,38.99924048738953,7,16.462842590863755,0.5643778585887844,1
39,117.30802309696378,38.99924378295361,7,15.976474455627113,-0.972736270473284,1
40,117.30792660688799,38.999246339467554,7,16.686186250686085,1.419423590117944,1
41,117.30783417583783,38.99925115449267,7,16.010818789650195,-1.35073492207178,1
42,117.30773858275502,38.999251650815566,7,16.521836384731134,1.0220351901618798,1
43,117.3076473025989,38.99925094243957,7,15.776845923886714,-1.48998092168884,1
44,117.30755261951522,38.99924686749371,7,16.38926560075623,1.2248393537390285,1
45,117.30745661092031,38.99923834099292,7,16.701276883426168,0.6240225653398781,1
46,117.30736460081255,38.9992335225849,7,15.938283873206254,-1.5259860204398272,1
47,117.30727091721383,38.999222995140244,7,16.359841166813123,0.8431145872137371,1
48,117.30717837134932,38.99921201775618,7,16.180050724363728,-0.35958088489879,1
49,117.30708601653866,38.99920059010365,7,16.16285402985356,-0.0343933890203374,1
50,117.30699272640882,38.99918413762246,7,16.533397182525075,0.7410863053430319,1
51,117.30690109838308,38.9991701640504,7,16.138223168768928,-0.7903480275122945,1
52,117.3068098064031,38.99914929955619,7,16.44625358415793,0.6160608307780038,1
53,117.30672148502198,38.999131826851645,7,15.75152636398415,-1.38945444034756,1
54,117.3066301308747,38.99911004482592,7,16.515263828749625,1.5274749295309498,1
55,117.30653948834293,38.99908393622701,7,16.707278406355464,0.3840291552116781,1
56,117.30645094817926,38.999058561506814,7,16.309878938497846,-0.7947989357152352,1
57,117.30636255988276,38.999032777933685,7,16.31698997231348,0.0142220676312661,1
58,117.30627947662893,38.99900552327575,7,15.58623649379848,-1.4615069570299966,1
59,117.30619231429954,38.99897526502675,7,16.499032935511345,1.8255928834257276,1
60,117.30610783931246,38.998941958876735,7,16.371382126619753,-0.2553016177831822,1
61,117.30602463263712,38.99890882125559,7,16.15907865674249,-0.4246069397545256,1
62,117.30593996454384,38.99887425091946,7,16.530035422242197,0.7419135309994118,1
63,117.30585996868416,38.99883789192042,7,16.016731400242772,-1.0266080439988485,1
64,117.30577926931659,38.998797827820546,7,16.55043499211889,1.0674071837522376,1
65,117.3056991680185,38.998756232217325,7,16.650214857603824,0.1995597309698667,1
66,117.30562233601204,38.998715307345144,7,16.09865828225832,-1.1031131506910086,1
67,117.30554720008723,38.99867600478422,7,15.653455568574632,-0.8904054273673765,1
68,117.30547225054254,38.998628967232904,7,16.650069613843293,1.9932280905373219,1
69,117.30539904488653,38.99858543008139,7,15.93194991381823,-1.4362394000501268,1
70,117.30532670062004,38.99853727117953,7,16.46335093937252,1.0628020511085836,1
71,117.30525838072629,38.998488321245,7,16.0602488505905,-0.806204177564041,1
72,117.30518836059827,38.99843956185856,7,16.249215799830406,0.3779338984798102,1
73,117.30512195693917,38.998387223907415,7,16.346019137328597,0.1936066749963814,1
74,117.3050548769424,38.99833254870484,7,16.800577682752355,0.9091170908475164,1
75,117.30499391470347,38.99827835414572,7,16.008510766953755,-1.5841338315971996,1
76,117.30492971434123,38.99822504824556,7,16.23744250197095,0.4578634700343898,1
77,117.30487005256018,38.998165794989696,7,16.73231433249472,0.989743661047541,1
78,117.30481259417482,38.9981102066737,7,15.857044573385084,-1.7505395182192736,1
79,117.30475607320962,38.9980517974198,7,16.25296304338412,0.791836939998074,1
80,117.30470116872941,38.99799324980337,7,16.111452249772288,-0.283021587223665,1
81,117.30464792013166,38.997932351782325,7,16.37419494836717,0.5254853971897617,1
82,117.3045990798363,38.99786731477688,7,16.746647686432993,0.7449054761316489,1
83,117.30455111748661,38.99780528796477,7,16.093317538878555,-1.3066602951088768,1
84,117.30450468677363,38.99774167736252,7,16.263991062887634,0.3413470480181573,1
85,117.30445915045978,38.997679732939574,7,15.865499694593474,-0.7969827365883191,1
86,117.30441719059202,38.997611954341316,7,16.72713560117449,1.7232718131620288,1
87,117.30437813910726,38.99754533571413,7,16.28031702787921,-0.8936371465905566,1
88,117.30433854246623,38.99747941236822,7,16.17936675041444,-0.2019005549295372,1
89,117.30430663541705,38.99741087909635,7,16.20811200409523,0.0574905073615781,1
90,117.3042703199637,38.99734179026135,7,16.5972432010527,0.778262393914936,1
91,117.30424029850323,38.997275480709085,7,15.632814566576936,-1.9288572689515249,1
92,117.30420913041347,38.99720572568725,7,16.421531847252908,1.577434561351943,1
93,117.30418344265543,38.99713554024028,7,16.227688230941993,-0.387687232621829,1
94,117.30415695242588,38.997065674193024,7,16.198035747684006,-0.0593049665159739,1
95,117.30413523629252,38.996993371604354,7,16.51161625656819,0.6271610177683655,1
96,117.30411829264871,38.996920088989086,7,16.558331484294687,0.0934304554529959,1
97,117.30409802471814,38.996851031415616,7,15.752155598643029,-1.6123517713033166,1
98,117.30408461501793,38.99677742679792,7,16.53218841938091,1.5600656414757594,1
99,117.30407101059967,38.99670421751688,7,16.44991963160497,-0.1645375755518756,1
100,117.3040584958006,38.9966338727633,7,15.792787951329622,-1.3142633605506973,1
101,117.30405423220954,38.99656145699897,7,16.121382092008155,0.6571882813570653,1
102,117.30404504715347,38.99648689053832,7,16.658640312204085,1.0745164403918608,1
103,117.30404022478315,38.996413219118345,7,16.404963554155067,-0.5073535160980356,1
104,117.3040411353374,38.996342671503946,7,15.689862936935619,-1.430201234438897,1
105,117.30404384335799,38.996266241348245,7,17.003734175645153,2.627742477419069,1
106,117.30404475990383,38.99619307429666,7,16.27238098177694,-1.462706387736425,1
107,117.30405037497842,38.99612100109087,7,16.05770432243219,-0.4293533186895004,1
108,117.30406111488574,38.99604767669653,7,16.411916398516983,0.7084241521695844,1
109,117.30407130168886,38.99597460969362,7,16.34446969402485,-0.1348934089842686,1
110,117.30408386194149,38.99590123389668,7,16.46180492371239,0.2346704593750815,1
111,117.30409944439063,38.995830920059895,7,15.867326588920355,-1.1889566695840692,1
112,117.30411498607047,38.99576045824078,7,15.898568155103405,0.0624831323661006,1
113,117.30413657889753,38.99568531650078,7,17.122444076124985,2.4477518420431608,1
114,117.3041593622739,38.99561589953857,7,15.931956840518978,-2.3809744712120136,1
115,117.3041851281417,38.99554366592125,7,16.669895621426736,1.4758775618155155,1
116,117.3042113753188,38.99547634489238,7,15.643743184844114,-2.0523048731652445,1
117,117.3042389293141,38.995404375580755,7,16.69876507357785,2.110043777467471,1
118,117.30427210049817,38.995334768350894,7,16.50756397832057,-0.3824021905145614,1
119,117.30430361560106,38.99527082582217,7,15.227740816809415,-2.5596463230223065,1
120,117.30434010220371,38.99519836729346,7,17.304126182296248,4.152770730973664,1
121,117.30437873074844,38.99513352297751,7,15.89132272494664,-2.8256069146992147,1
122,117.30441925910202,38.99506745016358,7,16.278238872832492,0.7738322957717045,1
123,117.30445999528114,38.99500170530109,7,16.22799019782362,-0.1004973500177471,1
124,117.30450484810882,38.99493656897507,7,16.429685720562247,0.4033910454772567,1
125,117.30454839521578,38.9948747753514,7,15.668511530201327,-1.5223483807218408,1
126,117.30460052129,38.99480962672287,7,17.061241900904083,2.7854607414055117,1
127,117.30464824850542,38.994748139485914,7,15.969738665064796,-2.183006471678574,1
128,117.30470248389528,38.99468930827075,7,16.095095352546107,0.250713374962622,1
129,117.30475803315366,38.99462677467522,7,16.899244822207645,1.6082989393230775,1
130,117.30481351615862,38.99456888057106,7,16.05403227708565,-1.6904250902439912,1
131,117.30486879459274,38.99451191032004,7,15.868424374690333,-0.3712158047906335,1
132,117.30492685613633,38.994453478417874,7,16.41867724954199,1.1005057497033128,1
133,117.3049921954589,38.99440075012286,7,16.280249530448387,-0.276855438187205,1
134,117.30505627572724,38.99434578438325,7,16.495330571107576,0.4301620813183789,1
135,117.30512312236824,38.994292482541915,7,16.553157089610767,0.115653037006382,1
136,117.30518825485862,38.99423913354706,7,16.355344159534848,-0.3956258601518385,1
137,117.3052548227766,38.99419256341789,7,15.48050099243698,-1.7496863341957365,1
138,117.30532977457695,38.9941430531484,7,17.001864390965345,3.04272679705673,1
139,117.30539507021732,38.99409238068697,7,15.948786758319567,-2.106155265291555,1
140,117.30547216374866,38.994048353169426,7,16.535672939826068,1.1737723630130006,1
141,117.30554494870536,38.99400261944604,7,16.177482982735715,-0.7163799141807061,1
142,117.30562489323735,38.99395856381048,7,16.938918504107672,1.5228710427439154,1
143,117.30570054233786,38.99392348145464,7,15.226274886305587,-3.42528723560417,1
144,117.30578217644693,38.9938794318136,7,17.177228159895133,3.9019065471790917,1
145,117.30586025682223,38.993844886821876,7,15.529181469324742,-3.296093381140782,1
146,117.30594011607845,38.993805786387604,7,16.313845886300392,1.5693288339512996,1
147,117.30602108241027,38.99377065512177,7,16.027755499935747,-0.5721807727292898,1
148,117.30610477439754,38.99373590588143,7,16.40051515770912,0.7455193155467441,1
149,117.3061893170312,38.993702822173695,7,16.360468118245898,-0.080094078926443,1
150,117.30627436357025,38.99367538741034,7,15.915728906037309,-0.8894784244171774,1
151,117.30636266345878,38.99364301041468,7,16.87538877386721,1.9193197356598048,1
152,117.3064489309399,38.99361768795294,7,15.938888844482749,-1.8729998587689245,1
153,117.30654103029434,38.993595268158245,7,16.681466152264647,1.485154615563797,1
154,117.30662636321141,38.99357115471654,7,15.693989212675774,-1.9749538791777468,1
155,117.30672042174437,38.99354982163907,7,16.935647668347308,2.483316911343067,1
156,117.30681026354418,38.993527794531055,7,16.283042742750975,-1.3052098511926644,1
157,117.30689845815499,38.993511394570824,7,15.674245339919777,-1.2175948056623973,1
158,117.30699131603018,38.993493526715255,7,16.534618003386715,1.7207453269338764,1
159,117.30708280736559,38.99347669732631,7,16.25070547383437,-0.5678250591046918,1
160,117.30717718201336,38.99346653593551,7,16.46800093582052,0.4345909239723014,1
161,117.30727005473857,38.99345723262017,7,16.18539964302643,-0.5652025855881817,1
162,117.30736274343894,38.993443926865986,7,16.291792831259396,0.2127863764659352,1
163,117.30745871483786,38.99344043255858,7,16.60640640667131,0.6292271508238301,1
164,117.30755045467124,38.9934333921422,7,15.93392154462571,-1.3449697240912037,1
165,117.30764494303742,38.99343111825948,7,16.339708157908202,0.8115732265649847,1
166,117.30774094081004,38.99342782778669,7,16.608904011744354,0.5383917076723037,1
167,117.30783306058652,38.99342495236673,7,15.93531821139265,-1.3471716007034082,1
168,117.30792684995608,38.9934271636191,7,16.218521225557566,0.5664060283298333,1
169,117.3080194000166,38.99343549581842,7,16.103817489508046,-0.2294074720990409,1
170,117.30811445574847,38.99343790776795,7,16.438700233579382,0.6697654881426729,1
171,117.30820574253907,38.99344751378921,7,15.922462053629866,-1.0324763598990323,1
172,117.30830048621415,38.9934528961306,7,16.419693301565808,0.9944624958718826,1
173,117.30839611420119,38.993467364389325,7,16.83911780654806,0.8388490099645054,1
174,117.3084883998408,38.99348298239147,7,16.324906932316637,-1.028421748462847,1
175,117.30858194270834,38.99349167612751,7,16.283629645606574,-0.0825545734201256,1
176,117.30867290701404,38.99351048319562,7,16.26954594137822,-0.0281674084567101,1
177,117.30876071621671,38.993530105619826,7,15.792290826287347,-0.954510230181743,1
178,117.3088510719979,38.993546416891,7,16.033297718612392,0.4820137846500891,1
179,117.3089437051435,38.99356959909339,7,16.820735104432607,1.574874771640431,1
180,117.30903928630245,38.99359668750106,7,17.58480463000357,1.5281390511419275,1
181,117.30912184955616,38.99362310129064,7,15.432337142158627,-4.304934975689889,1
182,117.30921185977047,38.99365226579641,7,16.8556269439815,2.8465796036457434,1
183,117.30929710387437,38.99367605102819,7,15.654733953466174,-2.401785981030649,1
184,117.3093807439358,38.99370611942609,7,15.92834885828789,0.5472298096434329,1
185,117.30946810047317,38.993740981319384,7,16.973250135204225,2.089802553832669,1
186,117.30955242358853,38.99377073757521,7,16.006745048495723,-1.9330101734170029,1
187,117.30963308939384,38.99380579129784,7,15.973997606950153,-0.0654948830911408,1
188,117.30971623437482,38.99384649402382,7,16.98429666812037,2.020598122340431,1
189,117.30979293249042,38.99388427676028,7,15.695403127552302,-2.577787081136133,1
190,117.3098765230338,38.99392033500365,7,16.524318306878424,1.6578303586522445,1
191,117.30995401721805,38.99396275253034,7,16.38280265444387,-0.2830313048691053,1
192,117.31002908417109,38.99400648836022,7,16.2157454066696,-0.3341144955485404,1
193,117.31010400572701,38.994053201037616,7,16.601659735702974,0.7718286580667453,1
194,117.31017195193829,38.994096740286786,7,15.22097092631733,-2.761377618771288,1
195,117.31024514493107,38.99414513325236,7,16.609317797393498,2.776693742152336,1
196,117.31031674426924,38.994191942404704,7,16.17152853434359,-0.8755785260998152,1
197,117.31038806340304,38.99424521331493,7,17.09694124285627,1.8508254170253622,1
198,117.31045166922402,38.99429728363673,7,15.967434304598575,-2.259013876515393,1
199,117.31052171819803,38.9943497631862,7,16.816709340107284,1.6985500710174186,1
200,117.31058209905376,38.994400253900714,7,15.329733461597764,-2.973951757019041,1
201,117.31064470091985,38.99445782517896,7,16.76312685615771,2.866786789119896,1
202,117.31070100002738,38.99451205450612,7,15.496297406051713,-2.5336589002119965,1
203,117.31076369503947,38.994570329973286,7,16.893351870977323,2.7941089298512196,1
204,117.31081997438389,38.99463216307152,7,16.84384379084924,-0.0990161602561628,1
205,117.31087493138911,38.99469106222297,7,16.18028930376878,-1.3271089741609217,1
206,117.31092631054247,38.99475312840233,7,16.412885890835103,0.4651931741326436,1
207,117.31097746209856,38.99480911366964,7,15.270302851842876,-2.285166077984453,1
208,117.31102064754832,38.99487396819896,7,16.240005350016457,1.939404996347161,1
209,117.31106916810309,38.99493982335935,7,16.87668875816809,1.273366816303266,1
210,117.31111326592607,38.99500225244545,7,15.838188083303063,-2.077001349730054,1
211,117.31115672577705,38.99506683523514,7,16.208274855020587,0.7401735434350485,1
212,117.31119584133451,38.9951337860373,7,16.352243706869267,0.2879377036973594,1
213,117.31123714084924,38.995203630557505,7,17.09443973764802,1.4843920615575072,1
214,117.3112689924546,38.99527020466041,7,15.795820473072313,-2.597238529151415,1
215,117.31130428868639,38.99533992134416,7,16.661347064597834,1.731053183051042,1
216,117.311337891897,38.995409459951574,7,16.519359289256894,-0.2839755506818804,1
217,117.31136736389799,38.99548026907115,7,16.550638232935526,0.062557887357265,1
218,117.31139022325672,38.995546838019344,7,15.322422333220876,-2.4564317994293,1
219,117.31141662129671,38.99561787372902,7,16.443312610361776,2.2417805542817995,1
220,117.31144185685108,38.995685393420835,7,15.636355671201866,-1.6139138783198206,1
221,117.31146045498143,38.99575853017493,7,16.579476966517547,1.8862425906313618,1
222,117.3114758638804,38.99583079986707,7,16.29121450733765,-0.5765249183597945,1
223,117.31149403347666,38.99590658809263,7,17.144606146863826,1.7067832790523525,1
224,117.31150554908825,38.99597560807685,7,15.477850623018554,-3.3335110476905427,1
225,117.31151599156505,38.99604849291201,7,16.309025021679265,1.662348797321421,1
226,117.31152051939895,38.99612071438373,7,16.080376902868323,-0.4572962376218825,1
227,117.31153156750224,38.996192454820054,7,16.068213119304197,-0.0243275671282532,1
228,117.3115322456435,38.99626906910342,7,17.038642382627444,1.940858526646494,1
229,117.31153471287452,38.996338882658925,7,15.53168145594879,-3.0139218533573064,1
230,117.31153230384636,38.996413109993256,7,16.512656308457768,1.961949705017954,1
231,117.31152675739864,38.99648644778183,7,16.33772892412191,-0.3498547686717117,1
232,117.31152219826603,38.996559428858056,7,16.249368345887333,-0.1767211564691564,1
233,117.31151405270286,38.99663244555139,7,16.299088669493766,0.0994406472128659,1
234,117.31150275460516,38.99670432458604,7,16.10399855601507,-0.3901802269573906,1
235,117.31149066539852,38.99677568474428,7,16.006737075997492,-0.1945229600351581,1
236,117.31147466954245,38.996850046353856,7,16.766772527125994,1.5200709022570038,1
237,117.31145630852518,38.99692192642552,7,16.2973566688558,-0.9388317165403848,1
238,117.31143902055388,38.99699102942384,7,15.655592665442773,-1.2835280068260566,1
239,117.31141506531243,38.99706619274271,7,17.220695995769926,3.1302066606543058,1
240,117.31139031322817,38.997133447541096,7,15.556581558893228,-3.328228873753396,1
241,117.31136487480198,38.99720590657817,7,16.703197371799522,2.293231625812588,1
