,LongitudeGPS,LatitudeGPS,TrackID,Velocity,Acceleration,Type
0,117.31545573755561,38.999091726782765,10,0.0,0.0,1
1,117.31538844491148,38.99920753693254,10,14.1296114592287,14.1296114592287,1
2,117.315328837427,38.9993288608438,10,14.440545027599349,0.3109335683706487,1
3,117.31525381360312,38.99944365447762,10,14.316556282406928,-0.1239887451924204,1
4,117.31518721585043,38.99956273156794,10,14.437406709544625,0.1208504271376967,1
5,117.31511657792346,38.99967404241667,10,13.800587820641946,-0.6368188889026793,1
6,117.3150555144551,38.99979801596374,10,14.760663014256068,0.9600751936141219,1
7,117.31498526096999,38.999913004753864,10,14.154240477699137,-0.6064225365569307,1
8,117.31492166152411,39.00003366487339,10,14.498812595076183,0.3445721173770462,1
9,117.31485259568511,39.000145220175874,10,13.7655106806331,-0.7333019144430839,1
10,117.314781,39.000267,10,14.88773016110933,1.1222194804762307,1
11,117.31461655767882,39.00032275108577,10,15.503533731735155,0.6158035706258254,1
12,117.31445872969701,39.000386107339345,10,15.350622151498575,-0.1529115802365801,1
13,117.31429036832664,39.000442586854994,10,15.846426570783018,0.4958044192844433,1
14,117.3141344893539,39.00049924134716,10,14.870469985333001,-0.9759565854500174,1
15,117.31396873650809,39.000554885846945,10,15.602653076155612,0.7321830908226108,1
16,117.31380822001451,39.000611894673156,10,15.250740304853572,-0.3519127713020396,1
17,117.31364412251631,39.00066830661978,10,15.505744697915368,0.255004393061796,1
18,117.31347993524294,39.000725978360954,10,15.569999823562497,0.0642551256471293,1
19,117.31332235461277,39.000783989564205,10,15.067713813981152,-0.5022860095813453,1
20,117.31316344139617,39.000847995640505,10,15.467038766494474,0.3993249525133216,1
21,117.31299709856938,39.00090234602886,10,15.593069937600909,0.126031171106435,1
22,117.31283916224291,39.00095933770407,10,15.047372555398514,-0.5456973822023947,1
23,117.31267615274514,39.001019431452676,10,15.59077493717655,0.5434023817780353,1
24,117.31251184182156,39.00107874199984,10,15.655560743649874,0.0647858064733242,1
25,117.3123446706602,39.00114146943821,10,16.04156724053718,0.3860064968873065,1
26,117.31218567713466,39.001197070581824,10,15.066131647559141,-0.9754355929780392,1
27,117.31202381236656,39.00125434696939,10,15.368974101825353,0.3028424542662123,1
28,117.31186600963235,39.00130839334591,10,14.901777677926434,-0.467196423898919,1
29,117.31169947579141,39.001372803855766,10,16.074456696202827,1.1726790182763924,1
30,117.31153360454311,39.001428532075415,10,15.615575668857646,-0.4588810273451802,1
31,117.31137759205852,39.00148602900536,10,14.920649490836587,-0.6949261780210598,1
32,117.31121457128384,39.001539959403395,10,15.310372402442093,0.3897229116055065,1
33,117.31104904126437,39.00160512174023,10,16.034407842226045,0.7240354397839521,1
34,117.31089020229403,39.00165734365396,10,14.903489669551128,-1.1309181726749173,1
35,117.31073032287084,39.001715731798335,10,15.265089029324582,0.3615993597734537,1
36,117.31056722085981,39.001774132835145,10,15.518160424803437,0.2530713954788553,1
37,117.31040316554412,39.00183056086922,10,15.50292214991387,-0.0152382748895672,1
38,117.31024075810475,39.00188917684512,10,15.47370038649902,-0.0292217634148493,1
39,117.31008208896259,39.00194738659689,10,15.161982043757497,-0.3117183427415231,1
40,117.309915,39.002006,10,15.841380403159862,0.6793983594023647,1
41,117.30980036574515,39.00191288361684,10,14.329403543735326,-1.5119768594245357,1
42,117.30969526167421,39.001820609786385,10,13.702683436293041,-0.626720107442285,1
43,117.30957575415592,39.0017302893433,10,14.405248145269312,0.7025647089762703,1
44,117.30946916164811,39.00164340508935,10,13.348333907451911,-1.0569142378174003,1
45,117.30935526834568,39.00154593940401,10,14.639575933138271,1.2912420256863602,1
46,117.3092371450094,39.00145573330849,10,14.310857083957709,-0.3287188491805626,1
47,117.30913041491,39.001369617083334,10,13.29492423536986,-1.0159328485878483,1
48,117.30901452204355,39.00127980436611,10,14.143123046674853,0.848198811304993,1
49,117.30890853759226,39.00118767783111,10,13.741065321131744,-0.4020577255431093,1
50,117.30879263207618,39.00109765068049,10,14.160761071772502,0.4196957506407575,1
51,117.30867921354361,39.00100850681662,10,13.939579070805014,-0.2211820009674881,1
52,117.30856575138826,39.000916290851,10,14.187137292085872,0.2475582212808582,1
53,117.30845466204804,39.00082430082521,10,14.027893293878718,-0.1592439982071543,1
54,117.30834245607682,39.00073398120816,10,13.95989245485328,-0.0680008390254372,1
55,117.3082345554598,39.00064288746797,10,13.767312651780797,-0.1925798030724835,1
56,117.30811789298393,39.000550953850336,10,14.357315187720856,0.5900025359400587,1
57,117.30800413067797,39.00045453291912,10,14.546233795594224,0.1889186078733687,1
58,117.30788998899072,39.000372111553965,10,13.46410435229138,-1.0821294433028434,1
59,117.30778052397277,39.00027309745209,10,14.515381526776768,1.0512771744853868,1
60,117.30766648458075,39.00018762418646,10,13.691009828751593,-0.8243716980251747,1
61,117.30755825266218,39.000096537426174,10,13.786196945691405,0.0951871169398117,1
62,117.30744460524942,39.000007896710784,10,13.913901732821373,0.1277047871299679,1
63,117.30733202732873,38.999908848509016,10,14.694973834478054,0.7810721016566813,1
64,117.30722037532493,38.999822836137064,10,13.585441422894736,-1.1095324115833183,1
65,117.30710969337498,38.999730470268055,10,14.034481642715509,0.4490402198207732,1
66,117.30699351159,38.999637054603056,10,14.446305387032453,0.4118237443169441,1
67,117.30688764584754,38.99954584025227,10,13.65888560446044,-0.7874197825720124,1
68,117.30676747236437,38.999459990256234,10,14.105756004008342,0.4468703995479011,1
69,117.30665366042905,38.9993613667822,10,14.730644006931508,0.624888002923166,1
70,117.306546,38.999275,10,13.37100755969308,-1.3596364472384277,1
71,117.3066636659261,38.99918608156276,10,14.182738408140802,0.8117308484477217,1
72,117.30677713138446,38.99910000383237,10,13.70232813141989,-0.480410276720912,1
73,117.30689017176417,38.99901375736348,10,13.689212746382434,-0.0131153850374552,1
74,117.3070082791173,38.99892057515719,10,14.544006982711267,0.8547942363288321,1
75,117.30712375021959,38.99883092796019,10,14.10456984986687,-0.4394371328443967,1
76,117.30723236404478,38.998751524883886,10,12.886113617885306,-1.2184562319815644,1
77,117.30735318795931,38.99866064763307,10,14.530329662220602,1.6442160443352964,1
78,117.30746171952818,38.99856912151656,10,13.83980037568858,-0.6905292865320227,1
79,117.30758060982578,38.99848539284877,10,13.86494280158497,0.0251424258963908,1
80,117.3076953414232,38.99839226297177,10,14.336644653195515,0.4717018516105451,1
81,117.30780958021562,38.998312344970664,10,13.282642774776521,-1.054001878418994,1
82,117.30792546423821,38.99821974520279,10,14.36339865358271,1.0807558788061886,1
83,117.3080428257132,38.99812944679048,10,14.27153363237635,-0.0918650212063596,1
84,117.30815531873014,38.998040781308475,10,13.845821817344172,-0.4257118150321784,1
85,117.30826559609353,38.99795600716861,10,13.404333206494213,-0.4414886108499587,1
86,117.30838948026832,38.99786411604066,10,14.799210010574097,1.3948768040798836,1
87,117.30850341026648,38.99777678908956,10,13.828399350316607,-0.9708106602574897,1
88,117.30861403498149,38.99769689499469,10,13.050441589852701,-0.7779577604639059,1
89,117.30872656033291,38.99760279837327,10,14.284088217176897,1.2336466273241964,1
90,117.30884594980438,38.997516319882784,10,14.103715137818075,-0.180373079358823,1
91,117.30896356602715,38.99743168278928,10,13.852095722268,-0.2516194155500742,1
92,117.30907777624925,38.997341813552254,10,14.04539671197122,0.1933009897032196,1
93,117.30918686938277,38.99725283136819,10,13.666686584992709,-0.3787101269785111,1
94,117.30930098648288,38.99716134339795,10,14.168438607128802,0.5017520221360936,1
95,117.3094245952409,38.997081647696845,10,13.87936860408648,-0.2890700030423226,1
96,117.30953601504999,38.99698566881064,10,14.37398581976216,0.4946172156756798,1
97,117.30964960736304,38.996901461347356,10,13.566027779128978,-0.8079580406331814,1
98,117.3097673295541,38.99681226386329,10,14.208112270135297,0.6420844910063188,1
99,117.30988280794234,38.99672529483825,10,13.896365035071522,-0.3117472350637751,1
100,117.309995,38.996637,10,13.798353479296969,-0.0980115557745531,1
101,117.31010308626989,38.9965447222324,10,13.875623711432983,0.0772702321360139,1
102,117.31021594800566,38.99645672030282,10,13.816009701268163,-0.0596140101648199,1
103,117.31032854193639,38.996368863259654,10,13.788270505042016,-0.0277391962261468,1
104,117.31043243751861,38.996288215739604,10,12.68985753452189,-1.0984129705201262,1
105,117.31054921536277,38.99619353512854,10,14.583704597505399,1.8938470629835091,1
106,117.31065699891202,38.996107045236535,10,13.38853282506586,-1.1951717724395383,1
107,117.31076542338919,38.996023669621934,10,13.18131671103279,-0.2072161140330699,1
108,117.31087636523392,38.99593267054483,10,13.939436876571191,0.7581201655384007,1
109,117.3109893497413,38.995848105434945,10,13.555729267116556,-0.3837076094546354,1
110,117.31109605778309,38.99575951995825,10,13.493223601625669,-0.0625056654908871,1
111,117.3112086201318,38.99566316431463,10,14.471424326146016,0.978200724520347,1
112,117.31131221750887,38.995576099413476,10,13.18633311215043,-1.2850912139955852,1
113,117.31142277126742,38.99549463439586,10,13.165737406190402,-0.0205957059600284,1
114,117.31153302258014,38.995401790541855,10,14.048554515728569,0.8828171095381663,1
115,117.31164780854853,38.99531133894195,10,14.126635601154858,0.0780810854262892,1
116,117.31175372237898,38.99522590645109,10,13.191784777475576,-0.9348508236792821,1
117,117.31186757617965,38.99514332010792,10,13.458932517166964,0.2671477396913886,1
118,117.31197662539006,38.99504818877762,10,14.167231074407702,0.7082985572407381,1
119,117.31208511872617,38.99495864647262,10,13.676467137280094,-0.4907639371276087,1
120,117.31220330903638,38.99487675859025,10,13.683513184800677,0.0070460475205838,1
121,117.31230848844942,38.994790550703115,10,13.210295747805908,-0.4732174369947693,1
122,117.31241904393592,38.99469391379845,10,14.378861921127546,1.1685661733216381,1
123,117.31252512860208,38.99461074651785,10,13.022021061771913,-1.3568408593556338,1
124,117.31263626676794,38.99452453011899,10,13.570469315139794,0.5484482533678818,1
125,117.31275307881198,38.99443191559117,10,14.420977560677178,0.8505082455373838,1
126,117.3128603538412,38.99434363473203,10,13.502239917942916,-0.9187376427342624,1
127,117.31296842059328,38.99425935456995,10,13.23057665143402,-0.2716632665088952,1
128,117.31308053199744,38.994169242830026,10,13.938215604938406,0.7076389535043859,1
129,117.31319173852725,38.99408171822868,10,13.677813510423722,-0.260402094514685,1
130,117.3133,38.993994,10,13.515729909691892,-0.1620836007318296,1
131,117.31319014761091,38.99390579462639,10,13.650145403363737,0.1344154936718454,1
132,117.31308584735638,38.99381110059365,10,13.860731989725464,0.2105865863617264,1
133,117.31297523441593,38.99371804478527,10,14.087225571466073,0.2264935817406091,1
134,117.31286947046482,38.99363000767788,10,13.393150092807138,-0.6940754786589345,1
135,117.31275636889006,38.993533969062334,10,14.476964532240336,1.0838144394331977,1
136,117.31264933537105,38.99344985877102,10,13.15433504827193,-1.3226294839684059,1
137,117.31254767210359,38.99335481225852,10,13.743774318007812,0.5894392697358821,1
138,117.31243268030586,38.993263351188396,10,14.219398558918284,0.4756242409104718,1
139,117.3123254729563,38.99316813272755,10,14.069301247727271,-0.1500973111910131,1
140,117.31222025449492,38.99307711697571,10,13.605605354536166,-0.4636958931911046,1
141,117.31211106708412,38.99298438082472,10,13.977740849176879,0.3721354946407125,1
142,117.31200128106286,38.9928988881167,10,13.431094034130254,-0.5466468150466248,1
143,117.31189835443554,38.99280823558048,10,13.44374573664314,0.0126517025128852,1
144,117.31178534881664,38.992711667650134,10,14.51493047246725,1.0711847358241116,1
145,117.31168068457015,38.99262552077608,10,13.174957701920423,-1.3399727705468276,1
146,117.31157660770312,38.99253080474565,10,13.850150599460827,0.6751928975404038,1
147,117.31146426619048,38.99243727535979,10,14.227589582256511,0.3774389827956846,1
148,117.3113599584042,38.99234388138583,10,13.751785630191124,-0.4758039520653874,1
149,117.31125559555922,38.99225250344218,10,13.586458560846802,-0.1653270693443218,1
150,117.31114758019619,38.99216931622829,10,13.141814693028007,-0.4446438678187956,1
151,117.31103920949045,38.99207050067768,10,14.437828252453887,1.2960135594258801,1
152,117.31093205561122,38.99198511832705,10,13.262670445124794,-1.175157807329093,1
153,117.3108224324018,38.99189130811721,10,14.091471429910234,0.8288009847854401,1
154,117.31071492906216,38.99179672705232,10,14.03308405142909,-0.0583873784811431,1
155,117.31060084939772,38.99170784783215,10,13.95987189360494,-0.07321215782415,1
156,117.31049862914769,38.99161304422163,10,13.754023350871595,-0.2058485427333459,1
157,117.31038811769908,38.99152868661086,10,13.386845798652393,-0.3671775522192018,1
158,117.31028180865887,38.99143492793838,10,13.89625503210571,0.5094092334533169,1
159,117.31017325522869,38.991343608367025,10,13.824852172122482,-0.0714028599832286,1
160,117.310065,38.991251,10,13.913114631082507,0.0882624589600258,1
161,117.3099033631466,38.99130267118326,10,15.104936552340972,1.1918219212584642,1
162,117.30973515332862,38.99135462879734,10,15.6435244419133,0.5385878895723284,1
163,117.30956786868853,38.99141100086233,10,15.757979852200263,0.114455410286963,1
164,117.30940134597107,38.99146367626673,10,15.538008311849948,-0.2199715403503149,1
165,117.30923226550023,38.991519263957244,10,15.866295618221525,0.3282873063715765,1
166,117.30906929439583,38.9915639709977,10,14.936326013270943,-0.9299696049505819,1
167,117.30890083338666,38.991618079055996,10,15.753415885186545,0.8170898719156021,1
168,117.30874138630931,38.991668733362054,10,14.88686996185238,-0.866545923334165,1
169,117.30857201152615,38.99172397983867,10,15.874965465658336,0.9880955038059565,1
170,117.30840449177602,38.9917803906337,10,15.778266806386682,-0.0966986592716541,1
171,117.30824477940696,38.99182896802776,10,14.822355581346821,-0.9559112250398609,1
172,117.30807947467383,38.99187801118241,10,15.291837528547928,0.4694819472011069,1
173,117.30790863061225,38.991930832807384,10,15.890465401998746,0.5986278734508179,1
174,117.30774197848412,38.9919904691526,10,15.856072861106668,-0.0343925408920782,1
175,117.30758588746887,38.99204277197109,10,14.690331307571103,-1.1657415535355646,1
176,117.30741639663212,38.9920971052917,10,15.845150288461253,1.1548189808901501,1
177,117.30724510937794,38.99214880969566,10,15.88062359512174,0.0354733066604869,1
178,117.3070804049319,38.992198644575666,10,15.275036442898436,-0.6055871522233041,1
179,117.30692042766464,38.99225211018689,10,15.04991387814199,-0.2251225647564468,1
180,117.30675651820427,38.992302150020144,10,15.219329132328642,0.1694152541866529,1
181,117.30658787045247,38.99235232849112,10,15.606696320791903,0.3873671884632603,1
182,117.30642400531025,38.99241344509763,10,15.708039254307968,0.1013429335160652,1
183,117.30625974339755,38.99246355094412,10,15.250334910260639,-0.457704344047329,1
184,117.30609550693993,38.992516258381166,10,15.356339025745372,0.1060041154847333,1
185,117.30592594424799,38.99256456041512,10,15.607501589119611,0.2511625633742387,1
186,117.305762245175,38.992625014044464,10,15.663283477111278,0.0557818879916674,1
187,117.30559655525957,38.992674267059336,10,15.331112595274712,-0.3321708818365661,1
188,117.30542483357955,38.992722812311776,10,15.7920167284227,0.4609041331479879,1
189,117.30526043791457,38.992777976280465,10,15.475233848873245,-0.3167828795494554,1
190,117.305097,38.992831,10,15.306027322128154,-0.1692065267450911,1
191,117.30502812989917,38.992959183574186,10,15.446180633453759,0.140153311325605,1
192,117.30496445855977,38.99308359225096,10,14.887859895364292,-0.558320738089467,1
193,117.30489875158555,38.993215298290295,10,15.707442953825323,0.8195830584610313,1
194,117.30483157805907,38.99333436488779,10,14.456449024849515,-1.2509939289758076,1
195,117.30475981551535,38.9934659635256,10,15.893124501897168,1.4366754770476522,1
196,117.30468885000116,38.993590989122936,10,15.194916287505052,-0.6982082143921158,1
197,117.30462407262718,38.99371641895296,10,15.028750603716917,-0.1661656837881349,1
198,117.3045582227463,38.99384533347421,10,15.422977479063348,0.3942268753464315,1
199,117.30448910893301,38.993975968895676,10,15.706076692945485,0.2830992138821369,1
200,117.30442018582293,38.99409811004348,10,14.830240595688426,-0.8758360972570589,1
201,117.30435581798751,38.99422348954371,10,15.010389664337598,0.1801490686491718,1
202,117.30428508870082,38.99435455337953,10,15.803606334551402,0.7932166702138037,1
203,117.30421680230214,38.99448357044194,10,15.512434443999798,-0.2911718905516043,1
204,117.30415191422097,38.994605495197646,10,14.671399254162521,-0.8410351898372763,1
205,117.30408950145986,38.99473447570463,10,15.3227039370209,0.6513046828583793,1
206,117.30401667254634,38.99486140923446,10,15.454096535262433,0.1313925982415327,1
207,117.303950380895,38.994988906708784,10,15.29086747212812,-0.1632290631343132,1
208,117.30387928761002,38.99511717607395,10,15.529916667026955,0.2390491948988345,1
209,117.30381193511406,38.9952432994399,10,15.184210600288507,-0.3457060667384475,1
210,117.30374958266538,38.99536775743812,10,14.851155963139814,-0.3330546371486935,1
211,117.30368274268707,38.99549228714037,10,15.003578044508183,0.1524220813683694,1
212,117.30361018741802,38.99561745565399,10,15.265302330039821,0.2617242855316384,1
213,117.30354286687448,38.99574733875451,10,15.5701151401318,0.3048128100919794,1
214,117.30347609327933,38.99587391427865,10,15.211591131360464,-0.3585240087713366,1
215,117.30340813105303,38.995998946658084,10,15.09264036860013,-0.1189507627603348,1
216,117.30334751505492,38.996130583696704,10,15.546494810564067,0.4538544419639372,1
217,117.3032770982353,38.99625623518747,10,15.239528026089516,-0.3069667844745503,1
218,117.30321128186432,38.99638287346862,10,15.186857654891014,-0.0526703711985022,1
219,117.30314665080037,38.99650568202067,10,14.75377887949735,-0.433078775393664,1
220,117.303075,38.996637,10,15.860514419077127,1.1067355395797769,1
221,117.30314507808745,38.996756932287965,10,14.646537545810792,-1.2139768732663345,1
222,117.30321673123841,38.9968877297201,10,15.807312612440127,1.1607750666293342,1
223,117.3032929189604,38.99700315370393,10,14.424816062815832,-1.3824965496242942,1
224,117.30335449202191,38.99713359695696,10,15.449843710010434,1.0250276471946016,1
225,117.30343484742046,38.99725127722325,10,14.81385681261986,-0.6359868973905733,1
226,117.3035056535517,38.99737569182787,10,15.127072159342408,0.3132153467225471,1
227,117.30357455234879,38.997499439086226,10,14.993017210949874,-0.1340549483925333,1
228,117.30364127735164,38.99762416246551,10,15.0195719655656,0.0265547546157254,1
229,117.30371770010638,38.99774514579263,10,14.986404320286422,-0.0331676452791783,1
230,117.30378752841732,38.997869868820544,10,15.124513312091992,0.13810899180557,1
231,117.30385501293924,38.99799146599972,10,14.725057946081204,-0.3994553660107876,1
232,117.3039293747473,38.9981165027957,10,15.316698823948634,0.5916408778674302,1
233,117.30399610123895,38.998234047444576,10,14.285822496579488,-1.0308763273691461,1
234,117.30406863175531,38.99835612359416,10,14.951461576535841,0.6656390799563532,1
235,117.30413900480656,38.99847660824654,10,14.712940225824514,-0.2385213507113271,1
236,117.30421520770454,38.99860256265465,10,15.4763836898703,0.7634434640457854,1
237,117.30428339048933,38.998729404224584,10,15.285406180672835,-0.1909775091974648,1
238,117.30435558246204,38.99885426508818,10,15.221106268858275,-0.06429991181456,1
