,LongitudeGPS,LatitudeGPS,TrackID,Velocity,Acceleration,Type
0,117.31583315378016,38.99477082770623,3,0.0,0.0,1
1,117.31589348080716,38.994904072714164,3,15.706675893753022,15.706675893753022,1
2,117.31596436625222,38.995031348730805,3,15.421393828675479,-0.2852820650775438,1
3,117.31602696713765,38.99516372312026,3,15.68208503680948,0.260691208134002,1
4,117.31609231664997,38.995296513078856,3,15.808755132324288,0.1266700955148075,1
5,117.31616068818168,38.99542682504149,3,15.648437110613942,-0.1603180217103457,1
6,117.31623041924902,38.995556714580935,3,15.649813809352619,0.0013766987386763,1
7,117.31629638188923,38.99568609696215,3,15.474874502919567,-0.1749393064330516,1
8,117.316359708638,38.99581544296684,3,15.388634711410182,-0.0862397915093851,1
9,117.31642421825964,38.9959451005952,3,15.457594766327576,0.0689600549173939,1
10,117.31648745368432,38.99607740459867,3,15.693725661647145,0.2361308953195689,1
11,117.31655188283428,38.99620502891065,3,15.244386005662742,-0.449339655984403,1
12,117.31662399382596,38.996339001035906,3,16.14794942725567,0.9035634215929296,1
13,117.31668427155117,38.996472886260406,3,15.772400442346614,-0.3755489849090576,1
14,117.31675626540154,38.99660183726742,3,15.63032119677885,-0.1420792455677642,1
15,117.31682,38.996733,3,15.58999743339556,-0.0403237633832898,1
16,117.31674875851533,38.996849652047295,3,14.358044604537895,-1.2319528288576649,1
17,117.3166828158339,38.9969667214257,3,14.210230019845339,-0.147814584692556,1
18,117.31662037559919,38.997084415818286,3,14.155800159916298,-0.0544298599290407,1
19,117.31654564981027,38.99720244003873,3,14.626442292293422,0.4706421323771242,1
20,117.31647664694233,38.997320963326885,3,14.465457900358128,-0.160984391935294,1
21,117.31641713809017,38.99744478815476,3,14.697738993508928,0.2322810931507995,1
22,117.31634143836213,38.9975582132405,3,14.207923894831612,-0.4898150986773153,1
23,117.31627568796921,38.99767378444565,3,14.05103086358715,-0.1568930312444632,1
24,117.31621252116524,38.99778978557751,3,14.00624827700616,-0.0447825865809897,1
25,117.31614120370807,38.99790614065612,3,14.331002627576174,0.3247543505700143,1
26,117.31607135218646,38.99802793645878,3,14.827429422849871,0.4964267952736972,1
27,117.31599942469317,38.99814348819132,3,14.273278242045011,-0.55415118080486,1
28,117.31593198002005,38.998260985336266,3,14.306161104710394,0.0328828626653834,1
29,117.31586840912637,38.998382655598775,3,14.60193481180502,0.2957737070946251,1
30,117.31580072433435,38.99850069571602,3,14.369745986344734,-0.2321888254602857,1
31,117.31573043402732,38.99861753344355,3,14.341627147689225,-0.0281188386555087,1
32,117.3156632959774,38.998733179379634,3,14.107488451973154,-0.2341386957160712,1
33,117.31560123567748,38.998848570035825,3,13.906572683656792,-0.2009157683163618,1
34,117.31552432268451,38.99897432274588,3,15.482319496222802,1.5757468125660097,1
35,117.31545876920767,38.99909355999078,3,14.418061651483027,-1.0642578447397746,1
36,117.31539685108551,38.99920898476135,3,13.905329782905955,-0.5127318685770721,1
37,117.31532558710329,38.99932177123997,3,13.97171068700501,0.066380904099054,1
38,117.31525186315511,38.999445794205435,3,15.191191222984301,1.219480535979292,1
39,117.31518705135429,38.99956318304581,3,14.203877278626274,-0.9873139443580268,1
40,117.3151231665066,38.99967414013413,3,13.516662074268297,-0.6872152043579778,1
41,117.31504801467622,38.999797498000746,3,15.17646151234405,1.659799438075753,1
42,117.31498140368181,38.999908770721845,3,13.646384184893583,-1.530077327450467,1
43,117.31491295026602,39.000031440601184,3,14.867705757168062,1.22132157227448,1
44,117.31484530516671,39.000151179641335,3,14.541068874417784,-0.3266368827502788,1
45,117.314781,39.000267,3,14.026344825220287,-0.5147240491974969,1
46,117.31461678293518,39.00032021995425,3,15.375188021281366,1.348843196061079,1
47,117.31445516508761,39.00038290233736,3,15.608714117211363,0.2335260959299976,1
48,117.3142919018966,39.000445325327085,3,15.723295056861444,0.1145809396500805,1
49,117.31413655649887,39.00050126709012,3,14.795221316552635,-0.9280737403088093,1
50,117.31396720926396,39.000558778340036,3,15.970248621055148,1.175027304502514,1
51,117.31380918353615,39.00061914037125,3,15.215995998770133,-0.7542526222850157,1
52,117.31364764928435,39.00067549650419,3,15.300896732986935,0.0849007342168022,1
53,117.31348429953643,39.000727166897214,3,15.240175810785685,-0.0607209222012504,1
54,117.31332178015849,39.000786383719955,3,15.510916568132695,0.27074075734701,1
55,117.313158248009,39.000850920180355,3,15.84909215460887,0.3381755864761757,1
56,117.31300116745423,39.00090117429796,3,14.679118269332635,-1.1699738852762351,1
57,117.31283593578686,39.00095891404564,3,15.655340547265913,0.9762222779332781,1
58,117.31266933216122,39.00102161979678,3,15.996388023878076,0.3410474766121627,1
59,117.31250897601011,39.001077378986,3,15.180776975738528,-0.815611048139548,1
60,117.312346599182,39.00114116840343,3,15.72244037860629,0.541663402867762,1
61,117.31219017335721,39.00119728976046,3,14.888223049148847,-0.8342173294574433,1
62,117.31202223853074,39.001256020596834,3,15.913523650009854,1.0253006008610068,1
63,117.31185939205281,39.0013150242743,3,15.526388602849023,-0.3871350471608306,1
64,117.31170305546165,39.00136557638862,3,14.632306053598342,-0.8940825492506814,1
65,117.311539997432,39.00142812968712,3,15.713622086661813,1.0813160330634712,1
66,117.31137154029238,39.00148867082043,3,16.03809617202449,0.3244740853626755,1
67,117.31121410506299,39.0015459219603,3,15.020212523826691,-1.017883648197797,1
68,117.31104691381746,39.00159551930867,3,15.464281199596844,0.4440686757701524,1
69,117.31088783193614,39.001660299182326,3,15.519588064425399,0.0553068648285553,1
70,117.31072724508188,39.001714655134975,3,15.135881521006874,-0.3837065434185245,1
71,117.31055914462246,39.001777267492486,3,16.108267948828086,0.9723864278212115,1
72,117.31039954405155,39.00183067367315,3,15.015682216237083,-1.0925857325910027,1
73,117.31023816228624,39.00188895567695,3,15.377673779897577,0.361991563660494,1
74,117.3100769259859,39.00195204814284,3,15.599397631027308,0.221723851129731,1
75,117.309915,39.002006,3,15.224227843324652,-0.3751697877026565,1
76,117.30980284330988,39.00191546172277,3,13.974328574242682,-1.2498992690819701,1
77,117.30969208113291,39.001820249792424,3,14.27216564827869,0.2978370740360088,1
78,117.3095790378256,39.0017330255107,3,13.765515265310066,-0.5066503829686244,1
79,117.30946670589717,39.0016386436273,3,14.29560773466429,0.5300924693542246,1
80,117.30935687185202,39.00155557852622,3,13.24355103013119,-1.0520567045331006,1
81,117.3092371337662,39.00145856484369,3,14.947479922266092,1.7039288921349023,1
82,117.30912733148978,39.00137013114879,3,13.66469609586487,-1.2827838264012215,1
83,117.30901566167357,39.001281364068895,3,13.803734308037303,0.1390382121724318,1
84,117.30890317872536,39.00118472633529,3,14.489549900137227,0.6858155920999245,1
85,117.30879674561282,39.001095253557516,3,13.54880582525291,-0.9407440748843179,1
86,117.3086779285804,39.001006898628745,3,14.210641597929364,0.6618357726764543,1
87,117.30856561877107,39.00091012893351,3,14.490435673180508,0.2797940752511447,1
88,117.30845035537047,39.000824564896625,3,13.774244138108932,-0.7161915350715766,1
89,117.30834591098173,39.0007304630574,3,13.818332004991648,0.044087866882716,1
90,117.3082296196011,39.00064248078794,3,14.024863178393732,0.2065311734020838,1
91,117.30811984458283,39.000545110550696,3,14.394845234205293,0.3699820558115618,1
92,117.30800573359656,39.00046309184192,3,13.43171067848355,-0.9631345557217443,1
93,117.30789128932307,39.00036672552331,3,14.581670954439847,1.149960275956298,1
94,117.30778582978674,39.00027232486266,3,13.900899401807646,-0.6807715526322013,1
95,117.30767094799639,39.00018480546957,3,13.901810426436336,0.0009110246286905,1
96,117.30756142610666,39.0000960566041,3,13.673273275436783,-0.2285371509995535,1
97,117.30744167233327,39.00000399401559,3,14.556268880982035,0.8829956055452524,1
98,117.30733247470766,38.999908109589995,3,14.23793390367037,-0.3183349773116646,1
99,117.30721607408594,38.99982255017182,3,13.845222397106577,-0.3927115065637938,1
100,117.30711037639172,38.99973107512379,3,13.67070207464938,-0.1745203224571963,1
101,117.30699172562396,38.999637369594524,3,14.618346381336634,0.9476443066872537,1
102,117.30688270390154,38.99954368246059,3,14.045737968263406,-0.5726084130732279,1
103,117.30677185811068,38.99945550106444,3,13.707561896451255,-0.3381760718121516,1
104,117.3066624900926,38.99937089048379,3,13.335607838842723,-0.3719540576085318,1
105,117.306546,38.999275,3,14.663734702623346,1.3281268637806232,1
106,117.30666451511311,38.99918590282273,3,14.249253001049363,-0.4144817015739832,1
107,117.30677582930954,38.99910214604428,3,13.389136899910207,-0.8601161011391554,1
108,117.30688792413375,38.999015219896116,3,13.684302535517407,0.2951656356071997,1
109,117.30700994425601,38.998923874245065,3,14.640844016836676,0.9565414813192685,1
110,117.3071244986566,38.99884004271314,3,13.597422877156088,-1.0434211396805875,1
111,117.30723990654486,38.99874796988506,3,14.2926604494261,0.6952375722700115,1
112,117.3073533812655,38.998663637956504,3,13.568061036252256,-0.7245994131738431,1
113,117.30747021895043,38.998575453123024,3,14.074622645134435,0.506561608882178,1
114,117.30757946862553,38.998483886769755,3,13.885217532284862,-0.1894051128495722,1
115,117.30769744004564,38.99839245603497,3,14.397642779427205,0.5124252471423425,1
116,117.307808055769,38.99830702110802,3,13.4767964385935,-0.9208463408337053,1
117,117.30792644874519,38.99821848778248,3,14.19822594800943,0.7214295094159304,1
118,117.30804095366241,38.99812859637115,3,14.064978921353033,-0.133247026656397,1
119,117.30815680464289,38.99804709204155,3,13.504282496415874,-0.5606964249371593,1
120,117.30827164944844,38.997953418762485,3,14.387139420926237,0.8828569245103637,1
121,117.30838796500856,38.997863918558885,3,14.144884135722164,-0.2422552852040738,1
122,117.30850466569254,38.997783582345924,3,13.47236452334741,-0.672519612374753,1
123,117.3086184873547,38.99768931379881,3,14.374511639422781,0.9021471160753709,1
124,117.30873446760374,38.99760677801361,3,13.5898027549086,-0.7847088845141812,1
125,117.30884183908384,38.99751780038265,3,13.564087923070392,-0.0257148318382079,1
126,117.30896220986466,38.997426768073474,3,14.51436633995825,0.9502784168878584,1
127,117.30907663869365,38.9973436165226,3,13.537924885616407,-0.9764414543418436,1
128,117.30919050882409,38.99725369414099,3,14.028979536441431,0.4910546508250242,1
129,117.30930796995297,38.99716674247839,3,14.018544253154253,-0.0104352832871779,1
130,117.30942074121185,38.99707492229104,3,14.11444026677408,0.0958960136198268,1
131,117.30953301602973,38.99698624564755,3,13.833575273708638,-0.2808649930654425,1
132,117.30965234259257,38.99690305052502,3,13.853386233132683,0.0198109594240456,1
133,117.30976669195991,38.996816421960155,3,13.800003461131203,-0.0533827720014806,1
134,117.3098761011029,38.996723741040675,3,13.985821041616514,0.1858175804853115,1
135,117.309995,38.996637,3,14.092789695214249,0.1069686535977343,1
136,117.31010812562104,38.99654700347054,3,13.98988977655845,-0.1028999186557993,1
137,117.31021307059277,38.9964561091837,3,13.579475222351482,-0.4104145542069677,1
138,117.31032284351618,38.99636904353328,3,13.5543334469252,-0.025141775426281,1
139,117.31043402857367,38.99628162784931,3,13.667684039833507,0.1133505929083061,1
140,117.3105463729065,38.99619325240315,3,13.814020731204542,0.1463366913710349,1
141,117.31065760163845,38.996111096854676,3,13.26084531257585,-0.5531754186286921,1
142,117.3107626257721,38.99601809543386,3,13.759301627540339,0.4984563149644892,1
143,117.31088096831054,38.995931286963234,3,14.062992657550273,0.3036910300099347,1
144,117.31099111413913,38.995841237412996,3,13.815506892811397,-0.247485764738876,1
145,117.31109723092156,38.995753462855845,3,13.392499756201072,-0.423007136610325,1
146,117.31120317455145,38.99566555590776,3,13.393005813338975,0.000506057137903,1
147,117.31131329342698,38.995584313820814,3,13.121402618952585,-0.2716031943863904,1
148,117.31142663767041,38.995490900926924,3,14.277150745781848,1.1557481268292626,1
149,117.31154123366366,38.99540069241245,3,14.095855560296519,-0.1812951854853289,1
150,117.31164764472393,38.995318615042656,3,12.956176511959747,-1.139679048336772,1
151,117.31176125642256,38.995223408486765,3,14.43863519784209,1.482458685882344,1
152,117.31186515207519,38.99513824747338,3,13.049458190748478,-1.389177007093613,1
153,117.3119759107841,38.99504685747823,3,13.960248356819662,0.9107901660711839,1
154,117.31209024291043,38.99496385439827,3,13.520789661535042,-0.4394586952846193,1
155,117.31220073786783,38.99487497943686,3,13.742179899759533,0.2213902382244903,1
156,117.31230866437666,38.99478312672881,3,13.831551728497624,0.0893718287380914,1
157,117.3124152787601,38.994699857494375,3,13.062316778351937,-0.7692349501456874,1
158,117.31253307675654,38.9946118740506,3,14.119157644065458,1.0568408657135215,1
159,117.3126426805212,38.9945204644861,3,13.89364278364613,-0.2255148604193291,1
160,117.3127498332126,38.994430058611194,3,13.667817192224984,-0.2258255914211453,1
161,117.31285603642338,38.99434684260764,3,13.03310579635184,-0.6347113958731434,1
162,117.31296826858457,38.99426220022288,3,13.515111361261017,0.4820055649091763,1
163,117.31308401338242,38.99416742479379,3,14.529912117716,1.0148007564549832,1
164,117.31318486281123,38.99407957118351,3,13.091697446199381,-1.4382146715166186,1
165,117.3133,38.993994,3,13.767603008079643,0.6759055618802616,1
166,117.31318866085552,38.99390144910571,3,14.08880975736658,0.3212067492869366,1
167,117.31308031951893,38.993809820849805,3,13.837451917575091,-0.2513578397914884,1
168,117.31297206621294,38.993722358375834,3,13.494756720307064,-0.3426951972680268,1
169,117.31287316011324,38.99363017744896,3,13.346414896719661,-0.148341823587403,1
170,117.31276332451546,38.99353267367257,3,14.410084359041212,1.0636694623215508,1
171,117.31265396667825,38.99344698677513,3,13.42024829357561,-0.9898360654656013,1
172,117.3125414343493,38.99335470621876,3,14.137654485157734,0.717406191582123,1
173,117.31244012867083,38.9932643460008,3,13.326907338127898,-0.8107471470298364,1
174,117.31233176680689,38.99317583450208,3,13.585577224768679,0.2586698866407815,1
175,117.31222007974706,38.99307479914075,3,14.811628790174867,1.2260515654061876,1
176,117.31211407861667,38.99298406155256,3,13.627998500945635,-1.1836302892292316,1
177,117.31200736146816,38.99289431306356,3,13.58870486330112,-0.0392936376445157,1
178,117.31190136541564,38.99280153430137,3,13.796603420761919,0.2078985574607994,1
179,117.31178572857317,38.9927172684083,3,13.699295421157778,-0.0973079996041406,1
180,117.31167864245296,38.99262628791668,3,13.711155163450977,0.0118597422931987,1
181,117.31157142484666,38.99252700039365,3,14.413501831783663,0.7023466683326856,1
182,117.3114706489494,38.992437566011,3,13.219321183650843,-1.1941806481328197,1
183,117.31136104713758,38.99234573189465,3,13.92829945431384,0.7089782706629979,1
184,117.31124773770551,38.99225244191723,3,14.265452533638639,0.3371530793247981,1
185,117.31114334860706,38.99216576111661,3,13.201965320548661,-1.063487213089978,1
186,117.31103853945702,38.99207369025449,3,13.669719705182358,0.4677543846336967,1
187,117.31092346270191,38.99198308319,3,14.156919517257473,0.4871998120751151,1
188,117.3108168292252,38.99189470684797,3,13.472192263490266,-0.6847272537672069,1
189,117.31070914379679,38.99180107818211,3,13.96437596512143,0.4921837016311645,1
190,117.31060312013928,38.99171237642333,3,13.4626986948852,-0.5016772702362307,1
191,117.31049854945138,38.99161920055895,3,13.748465588584253,0.2857668936990532,1
192,117.31038796750526,38.99152841589196,3,13.901148561474928,0.1526829728906751,1
193,117.3102812386378,38.991438010816324,3,13.643225914783017,-0.2579226466919113,1
194,117.31017522711943,38.991341935233734,3,14.07382208100815,0.4305961662251327,1
195,117.310065,38.991251,3,13.892290387723287,-0.1815316932848621,1
196,117.30989965316866,38.991307320943534,3,15.602203439220592,1.7099130514973044,1
197,117.30973142835124,38.99135247409296,3,15.381396839281845,-0.2208065999387472,1
198,117.30956813280591,38.99141240139326,3,15.606931705210997,0.2255348659291521,1
199,117.30939970448296,38.991461737894724,3,15.555894851452317,-0.0510368537586796,1
200,117.30923364683291,38.991516988249636,3,15.611220010612673,0.0553251591603559,1
201,117.3090686905938,38.991565528812245,3,15.243884711716342,-0.3673352988963305,1
202,117.30890357682024,38.99162350855413,3,15.658734664708001,0.4148499529916592,1
203,117.30873687908127,38.99167048951043,3,15.324734579281161,-0.3340000854268403,1
204,117.3085793147292,38.99172691328943,3,14.993301432931188,-0.3314331463499727,1
205,117.30841340116254,38.99177731438898,3,15.395349201676025,0.4020477687448363,1
206,117.30824035233685,38.99182937562731,3,16.03697695112838,0.6416277494523559,1
207,117.308078969204,38.991882763708126,3,15.158297590604175,-0.878679360524206,1
208,117.30791105054024,38.99193866416827,3,15.78744908799268,0.6291514973885057,1
209,117.30774374587897,38.99199173843318,3,15.617229177338686,-0.1702199106539943,1
210,117.30758265943233,38.99204322011367,3,15.052793270453972,-0.5644359068847145,1
211,117.30741727987599,38.99209261993159,3,15.312021100854112,0.2592278304001407,1
212,117.30725147630402,38.99215030908064,3,15.699754793633176,0.3877336927790633,1
213,117.30708775315112,38.99219781292553,3,15.103446245664962,-0.5963085479682135,1
214,117.3069217471028,38.992250342489434,3,15.490388537070231,0.3869422914052691,1
215,117.30675541167743,38.992302099392774,3,15.484610255696419,-0.0057782813738125,1
216,117.30658510429457,38.992361423674616,3,16.129270787018775,0.6446605313223568,1
217,117.30641976081242,38.992411723932904,3,15.345260943224746,-0.7840098437940295,1
218,117.30625570210384,38.992464149011596,3,15.330184483001247,-0.015076460223499,1
219,117.30609113649925,38.992510979120475,3,15.145698782188546,-0.1844857008127008,1
220,117.30592623209681,38.992571974789115,3,15.783251039399953,0.6375522572114072,1
221,117.30576186070208,38.992623632152366,3,15.32294711876809,-0.4603039206318638,1
222,117.30558972557435,38.992674197092036,3,15.903613931736949,0.5806668129688592,1
223,117.30542440201097,38.992726307323856,3,15.418102377898176,-0.4855115538387729,1
224,117.30526594178411,38.99278103780926,3,14.98602709426719,-0.4320752836309865,1
225,117.305097,38.992831,3,15.621769915465364,0.6357428211981748,1
226,117.30503263072399,38.99295814419278,3,15.192898260699213,-0.4288716547661515,1
227,117.30496190957628,38.99308929006986,3,15.811789644194398,0.6188913834951855,1
228,117.30489876431452,38.99321183991995,3,14.679035822499891,-1.1327538216945072,1
229,117.30483063914119,38.99333382009323,3,14.786282431746844,0.1072466092469533,1
230,117.30476346198265,38.993461337461135,3,15.321798245538412,0.5355158137915677,1
231,117.30468779838344,38.993595432695805,3,16.281534541998155,0.9597362964597433,1
232,117.30462173735135,38.993721425835396,3,15.128413322424123,-1.1531212195740324,1
233,117.30456055530854,38.993845591810896,3,14.784468343018982,-0.3439449794051406,1
234,117.30449373366001,38.99397295283376,3,15.294067857782023,0.5095995147630408,1
235,117.30442632502103,38.99409706206098,3,14.979526154117853,-0.3145417036641707,1
236,117.30435556479313,38.99422808867367,3,15.800828447442534,0.8213022933246812,1
237,117.30428485055992,38.994356008862134,3,15.481330954575633,-0.3194974928669012,1
238,117.30421790897155,38.99448443534715,3,15.407709875170982,-0.073621079404651,1
239,117.30415517463204,38.99460420938948,3,14.379492483395898,-1.0282173917750832,1
240,117.30408984165857,38.99473122832724,3,15.210605430513418,0.8311129471175196,1
241,117.30401715464235,38.99486161933542,3,15.801118367324595,0.5905129368111766,1
