,LongitudeGPS,LatitudeGPS,TrackID,Velocity,Acceleration,Type
0,117.31484,38.99281,0,0.0,0.0,1
1,117.31490193325719,38.992939357478576,0,15.347491948117755,15.347491948117755,1
2,117.31497482908416,38.99306661722402,0,15.489648479359825,0.1421565312420707,1
3,117.31504022034291,38.99320416730833,0,16.305533992156818,0.8158855127969922,1
4,117.31510054556556,38.99332910001782,0,14.837951818882553,-1.4675821732742644,1
5,117.3151684462976,38.99346383566164,0,16.090162384901692,1.252210566019139,1
6,117.31523915931469,38.99359646847185,0,15.964119590744785,-0.1260427941569073,1
7,117.31529831072065,38.99372596493499,0,15.279852756517638,-0.684266834227147,1
8,117.31536845737989,38.993859920047655,0,16.081527906131747,0.801675149614109,1
9,117.31543257551313,38.99399074431982,0,15.566638649945272,-0.5148892561864749,1
10,117.31549850352134,38.99412127157469,0,15.592249172061395,0.0256105221161231,1
11,117.31556865229851,38.99424369927892,0,14.9021979434911,-0.6900512285702955,1
12,117.31562973844278,38.99438363040811,0,16.430815952760994,1.5286180092698949,1
13,117.31570161299452,38.994512104031536,0,15.57759884400099,-0.8532171087600045,1
14,117.31575948850204,38.994638464055534,0,14.914287006163548,-0.6633118378374423,1
15,117.31583088528328,38.99476771713801,0,15.640777127761217,0.7264901215976689,1
16,117.31589320347149,38.994906090521106,0,16.301734544697016,0.6609574169357995,1
17,117.31595765057826,38.995037799084606,0,15.66862001634511,-0.6331145283519053,1
18,117.31602688997047,38.99516497427742,0,15.35511003190788,-0.3135099844372302,1
19,117.31609895908235,38.99529350593013,0,15.590198641907408,0.2350886099995275,1
20,117.31615788660469,38.99542077500768,0,15.04007531538638,-0.5501233265210281,1
21,117.3162243825042,38.99555248950355,0,15.733026514854,0.6929511994676201,1
22,117.31629485310826,38.99568469177678,0,15.911804119150858,0.1787776042968581,1
23,117.31636244161197,38.995815526487725,0,15.676926131355927,-0.2348779877949312,1
24,117.31642278783396,38.99595318357137,0,16.17079123461725,0.4938651032613244,1
25,117.31649208533446,38.99607479284507,0,14.789102865066742,-1.3816883695505098,1
26,117.31655694733517,38.99620919723421,0,15.96168486395396,1.1725819988872193,1
27,117.31662413708284,38.996341042769984,0,15.768549452899146,-0.1931354110548149,1
28,117.31668692914639,38.99647074329063,0,15.409133682447816,-0.3594157704513297,1
29,117.31675352400654,38.996599656283934,0,15.446608759778135,0.0374750773303187,1
30,117.31682,38.996733,0,15.901152044598746,0.4545432848206108,1
31,117.3167544505417,38.99684838125737,0,14.024720391627202,-1.8764316529715437,1
32,117.3166825675194,38.99696503311939,0,14.381881331998617,0.3571609403714149,1
33,117.3166200091552,38.99709002640285,0,14.913030720720744,0.5311493887221275,1
34,117.31654738387178,38.99720905750473,0,14.648294710683864,-0.2647360100368807,1
35,117.3164846775673,38.99732395231197,0,13.877466884882553,-0.7708278258013106,1
36,117.31641366707561,38.997441944392975,0,14.484306687948548,0.6068398030659949,1
37,117.3163441534155,38.99755617911583,0,14.05117752400418,-0.4331291639443684,1
38,117.31627768040099,38.9976792391965,0,14.840519857210404,0.7893423332062248,1
39,117.31621258300798,38.99779605965633,0,14.15566419461208,-0.6848556625983253,1
40,117.31613847563139,38.99791143445923,0,14.338719857236727,0.183055662624648,1
41,117.31607301682399,38.99802536888951,0,13.874465449443333,-0.4642544077933941,1
42,117.31600286908348,38.99814372464953,0,14.489571786097851,0.6151063366545184,1
43,117.31593558732811,38.998262793308015,0,14.460254661669524,-0.0293171244283279,1
44,117.31586675621027,38.998381598138586,0,14.487849312034594,0.0275946503650708,1
45,117.31580171364446,38.99849551457979,0,13.857995308082963,-0.6298540039516318,1
46,117.31573146754765,38.99861737515568,0,14.847895740259196,0.989900432176233,1
47,117.3156690463753,38.99873802361472,0,14.45935739829641,-0.3885383419627857,1
48,117.31559975551914,38.99885129796363,0,13.946389995469975,-0.512967402826435,1
49,117.31553136558111,38.99897476670655,0,14.947108776042544,1.0007187805725692,1
50,117.31545905335344,38.999093632752334,0,14.620058208965839,-0.3270505670767054,1
51,117.31539321945502,38.99920215387753,0,13.340844595117344,-1.2792136138484942,1
52,117.31532951801663,38.999325566935646,0,14.785835784229958,1.4449911891126135,1
53,117.31526115066474,38.99944490824156,0,14.52588114841068,-0.2599546358192786,1
54,117.31519237625753,38.999559983225815,0,14.108596357437241,-0.4172847909734383,1
55,117.31512224431378,38.9996755796697,0,14.210833625367965,0.1022372679307235,1
56,117.31505142746013,38.99979448771979,0,14.569506702625235,0.3586730772572704,1
57,117.31498810670253,38.99991082690818,0,14.045987538528442,-0.5235191640967933,1
58,117.31491584389369,39.000031444795525,0,14.79456021805757,0.7485726795291292,1
59,117.31485112675125,39.000150808121006,0,14.402705190450387,-0.3918550276071837,1
60,117.314781,39.000267,0,14.270536059893963,-0.1321691305564237,1
61,117.314615723619,39.0003250893686,0,15.674961095818466,1.4044250359245023,1
62,117.31445432195741,39.00038144910736,0,15.290662003161035,-0.3842990926574306,1
63,117.31429320216137,39.00043830622187,0,15.291220971162256,0.0005589680012204,1
64,117.31412745664791,39.00050113912234,0,15.935971632690833,0.6447506615285779,1
65,117.31397291830886,39.000558602945155,0,14.804220318284573,-1.1317513144062605,1
66,117.3138068725207,39.00061644537869,0,15.72426021077572,0.9200398924911468,1
67,117.31364779887208,39.000668156805304,0,14.900348357386786,-0.8239118533889336,1
68,117.31348635878135,39.000735330264014,0,15.824410892432095,0.9240625350453087,1
69,117.31332060838837,39.00078532367492,0,15.364056914456153,-0.4603539779759416,1
70,117.31316334634695,39.000844716865366,0,15.109361294493926,-0.2546956199622272,1
71,117.31299421181888,39.00090216328159,0,15.950453982705996,0.8410926882120702,1
72,117.31283618658263,39.000958324947874,0,15.015723791875589,-0.9347301908304075,1
73,117.31266793967583,39.001021262105475,0,16.135452346249302,1.1197285543737134,1
74,117.31250873376591,39.00107651030742,0,15.066846878349011,-1.0686054679002908,1
75,117.31234341405329,39.00113795435751,0,15.835553191907614,0.768706313558603,1
76,117.31218505654068,39.0011930835531,0,14.994499366634697,-0.8410538252729172,1
77,117.31202703716485,39.00124838759293,0,14.97580119100961,-0.0186981756250866,1
78,117.31186265107354,39.00131092801209,0,15.816001389694602,0.8402001986849914,1
79,117.31170280131062,39.00136836192835,0,15.217998861618248,-0.5980025280763535,1
80,117.31153503755453,39.001429010293805,0,15.988769073936995,0.7707702123187463,1
81,117.31137835301506,39.0014851631965,0,14.909942297828739,-1.0788267761082562,1
82,117.31120855841583,39.001546314564514,0,16.171472048029525,1.2615297502007863,1
83,117.3110495597492,39.00160111496346,0,15.030147189501722,-1.1413248585278026,1
84,117.31088757476725,39.001657018651386,0,15.315772665091457,0.2856254755897343,1
85,117.31072728323241,39.00171786503847,0,15.41532583365193,0.0995531685604742,1
86,117.31056861181936,39.00177089356748,0,14.925341866460096,-0.4899839671918347,1
87,117.31039694381342,39.00182752223583,0,16.11537212660427,1.1900302601441748,1
88,117.31024030251591,39.001894368060185,0,15.442307260700563,-0.673064865903708,1
89,117.31007749000308,39.001948050419436,0,15.28294724242306,-0.1593600182775035,1
90,117.309915,39.002006,0,15.449097374680036,0.1661501322569769,1
91,117.30979908573534,39.00191334344268,0,14.36938326862824,-1.0797141060517959,1
92,117.3096918766134,39.00182008893562,0,13.905049830307885,-0.4643334383203559,1
93,117.30958084317314,39.001728157703596,0,14.019736750249635,0.1146869199417502,1
94,117.30946585314312,39.001644350774015,0,13.622695533173665,-0.3970412170759694,1
95,117.30935586822193,39.00155032724892,0,14.129176538080584,0.5064810049069184,1
96,117.30924500091623,39.001458958323504,0,13.96438465448383,-0.1647918835967541,1
97,117.30912412125498,39.00137138402379,0,14.280581717142622,0.3161970626587927,1
98,117.30901447270128,39.0012740083293,0,14.388038281719195,0.107456564576573,1
99,117.30890285606871,39.0011836596479,0,13.92685692957886,-0.4611813521403363,1
100,117.30878802500882,39.001091577383946,0,14.258447482444897,0.3315905528660377,1
101,117.30868420481976,39.00100483465037,0,13.172693054188004,-1.0857544282568927,1
102,117.30856981313703,39.00091249835815,0,14.252402942098394,1.07970988791039,1
103,117.30845172723191,39.00081883421026,0,14.580744660877164,0.3283417187787698,1
104,117.30834015686571,39.00073341739779,0,13.533787103369187,-1.0469575575079766,1
105,117.30822894966482,39.00064343234273,0,13.873237956708286,0.3394508533390983,1
106,117.30811394299462,39.00054543826233,0,14.747880083225912,0.8746421265176263,1
107,117.30800837874155,39.00045854455153,0,13.288045705409422,-1.45983437781649,1
108,117.30789089309937,39.000371792564,0,14.004442473558266,0.7163967681488437,1
109,117.30777999975653,39.00027196707148,0,14.664291407668692,0.6598489341104266,1
110,117.30766502458256,39.00018242632563,0,14.065767819920614,-0.5985235877480779,1
111,117.30755886742789,39.000096470050956,0,13.247903274269964,-0.8178645456506501,1
112,117.30744139443412,39.0000031049104,0,14.520018386497718,1.2721151122277536,1
113,117.30732870723264,38.99990865496767,0,14.322181686979642,-0.197836699518076,1
114,117.30722361729713,38.99982518592407,0,12.985135290234357,-1.3370463967452846,1
115,117.30710304127457,38.99973213226363,0,14.684340441823638,1.6992051515892808,1
116,117.30699866569162,38.99964161037859,0,13.515524151473567,-1.1688162903500707,1
117,117.30688733042939,38.99954665744846,0,14.28433071395758,0.7688065624840128,1
118,117.30677171776526,38.99945724971139,0,14.094370333190458,-0.189960380767122,1
119,117.30665824560785,38.9993662562483,0,14.089951885623801,-0.0044184475666569,1
120,117.306546,38.999275,0,14.037510580905108,-0.0524413047186929,1
121,117.30665824758167,38.99918858445489,0,13.65361647795967,-0.3838941029454386,1
122,117.3067772059602,38.999098793538415,0,14.330456251635557,0.6768397736758871,1
123,117.30689486710983,38.99900801948955,0,14.327070249304683,-0.003386002330874,1
124,117.30700556511407,38.99892270059798,0,13.472693066938177,-0.8543771823665054,1
125,117.30711923205945,38.99883800028679,0,13.60837138029091,0.1356783133527326,1
126,117.3072331843498,38.99874909162441,0,13.953727035841759,0.3453556555508488,1
127,117.30734791434713,38.99866346767544,0,13.74578236383898,-0.2079446720027782,1
128,117.30746324838206,38.99857501366413,0,14.002708660757936,0.2569262969189552,1
129,117.30757828087215,38.99847972311062,0,14.528906360273075,0.526197699515139,1
130,117.3076979362692,38.99839599623036,0,13.913883955015907,-0.615022405257168,1
131,117.3078078192987,38.99830754491329,0,13.6712375355726,-0.2426464194433073,1
132,117.30792735759104,38.99821492754356,0,14.586710517499219,0.9154729819266194,1
133,117.30803949627835,38.998130820402466,0,13.467537148757073,-1.1191733687421461,1
134,117.30815284594597,38.998046657384634,0,13.547333100092217,0.0797959513351447,1
135,117.30827408783985,38.997956787260904,0,14.478863870796252,0.9315307707040343,1
136,117.30838089708247,38.99786846627211,0,13.477568825916453,-1.0012950448797984,1
137,117.30849700386719,38.99777865866056,0,14.156169800079907,0.6786009741634533,1
138,117.30862037037915,38.99769163559742,0,14.39765415280528,0.2414843527253741,1
139,117.30872560394347,38.99760346474007,0,13.37246206919054,-1.0251920836147406,1
140,117.30885004830016,38.99751508613947,0,14.56803044668898,1.1955683774984394,1
141,117.30896320049948,38.9974307564848,0,13.54787938406764,-1.0201510626213395,1
142,117.30907472792462,38.997340243293294,0,13.935087867482121,0.3872084834144811,1
143,117.30918719927382,38.997253161810335,0,13.719711018381481,-0.2153768491006396,1
144,117.30930659458117,38.99716573868767,0,14.175943151638712,0.456232133257231,1
145,117.3094226649966,38.99707271357694,0,14.408662920776116,0.2327197691374039,1
146,117.30953643223283,38.99699190054595,0,13.31945938985517,-1.0892035309209458,1
147,117.30965177508254,38.9968983710504,0,14.40541866728879,1.08595927743362,1
148,117.30976994530818,38.99681155547744,0,14.052617136429356,-0.3528015308594341,1
149,117.30988181515735,38.99672039819519,0,14.007368310924363,-0.0452488255049932,1
150,117.309995,38.996637,0,13.47852598987542,-0.528842321048943,1
151,117.31010494193853,38.996549989312854,0,13.560181744482954,0.0816557546075334,1
152,117.3102175253688,38.9964642174178,0,13.62431987170929,0.0641381272263359,1
153,117.31032075789945,38.996375271911205,0,13.319409458001378,-0.3049104137079119,1
154,117.3104328492071,38.99628855048174,0,13.668282355136274,0.3488728971348962,1
155,117.31054595474515,38.99619598711628,0,14.19429328674181,0.526010931605537,1
156,117.31066053391321,38.99610901960122,0,13.84060913516227,-0.3536841515795413,1
157,117.31076864845502,38.99601533227916,0,13.993602749011936,0.1529936138496666,1
158,117.31087559870923,38.99593404537378,0,12.927628292868157,-1.0659744561437794,1
159,117.3109909000815,38.99584482994852,0,14.06057957406038,1.1329512811922235,1
160,117.31109241378493,38.995751511832374,0,13.587999247101424,-0.4725803269589566,1
161,117.31120739827192,38.995668391178945,0,13.570871651469595,-0.0171275956318286,1
162,117.3113213798038,38.99557620256751,0,14.216513062857091,0.645641411387496,1
163,117.3114299946864,38.99548803124458,0,13.573100400300396,-0.6434126625566954,1
164,117.31153478385272,38.99540041103939,0,13.301652948648389,-0.2714474516520067,1
165,117.31164367906763,38.995312888819896,0,13.537902939155684,0.2362499905072948,1
166,117.31175969499547,38.99523219194206,0,13.455107235095113,-0.0827957040605707,1
167,117.31187097149098,38.99514203000467,0,13.892092002954566,0.4369847678594532,1
168,117.31198132452707,38.99505483190178,0,13.600088317936613,-0.2920036850179528,1
169,117.31208329214782,38.994960796749304,0,13.67429253246594,0.0742042145293258,1
170,117.31219452438155,38.994871169640284,0,13.846604906247363,0.1723123737814234,1
171,117.31230724703231,38.99478310936911,0,13.812287889828006,-0.0343170164193562,1
172,117.31241727144075,38.99469445377444,0,13.696403654627442,-0.1158842352005642,1
173,117.31252618948838,38.99460901156594,0,13.374058519801945,-0.3223451348254969,1
174,117.31263515669202,38.99452448690737,0,13.30478836553036,-0.0692701542715852,1
175,117.31275142152738,38.99443698036655,0,13.986999696614227,0.6822113310838667,1
176,117.31285825934341,38.99434308578561,0,13.93757776019108,-0.0494219364231459,1
177,117.31296730171547,38.99425987086089,0,13.206971016927469,-0.7306067432636123,1
178,117.3130813201501,38.99417185041636,0,13.888433831031323,0.6814628141038543,1
179,117.31319457767624,38.99408304271215,0,13.903900654932736,0.0154668239014129,1
180,117.3133,38.993994,0,13.455054883253364,-0.4488457716793715,1
181,117.31319373847782,38.99390012303633,0,13.903201625061303,0.448146741807939,1
182,117.31307960948435,38.99381371549924,0,13.769511305644462,-0.1336903194168411,1
183,117.31297382551456,38.99371992828625,0,13.868485130460556,0.0989738248160936,1
184,117.31287135528365,38.993627938893525,0,13.529643893600301,-0.3388412368602545,1
185,117.3127587900761,38.993536462933214,0,14.074800355788694,0.5451564621883929,1
186,117.31265195563928,38.993440494075955,0,14.111069430530204,0.0362690747415098,1
187,117.31254364632187,38.99335677455259,0,13.20143296550644,-0.9096364650237643,1
188,117.31243549733036,38.993264621655186,0,13.869303198962642,0.6678702334562026,1
189,117.31232731955508,38.99317444463262,0,13.709482939476848,-0.1598202594857945,1
190,117.31222565462656,38.993077478544464,0,13.908692589725476,0.199209650248628,1
191,117.31211043291962,38.99299260905514,0,13.719197327484911,-0.1894952622405643,1
192,117.31200751879837,38.992900689702815,0,13.548968379644329,-0.1702289478405827,1
193,117.31190009686726,38.992803239464855,0,14.269081386768567,0.7201130071242385,1
194,117.3117862484367,38.99271262602401,0,14.082981559138755,-0.1860998276298123,1
195,117.31167985413681,38.9926182072267,0,13.956161157452827,-0.1268204016859276,1
196,117.3115726084815,38.99253473900697,0,13.116702830134738,-0.8394583273180896,1
197,117.31147174971083,38.992439292815256,0,13.733818580398552,0.6171157502638138,1
198,117.31135938917822,38.9923496445505,0,13.916402122222074,0.1825835418235222,1
199,117.3112512751592,38.99225442756643,0,14.120982220423134,0.2045800982010597,1
200,117.31114176123307,38.992162420637364,0,13.937251199373543,-0.1837310210495904,1
201,117.3110342621486,38.99207483996853,0,13.459306133145553,-0.4779450662279903,1
202,117.31092400222668,38.991979730326996,0,14.23553088456326,0.7762247514177076,1
203,117.31082274852122,38.99188941174352,0,13.320577860595648,-0.9149530239676125,1
204,117.31070986496051,38.991803750571464,0,13.634709558360537,0.3141316977648891,1
205,117.31060684515415,38.99171012882143,0,13.698365433355162,0.063655874994625,1
206,117.31050008267344,38.991614258855904,0,14.098840867872308,0.400475434517146,1
207,117.3103901144153,38.99152858646246,0,13.456491842229411,-0.642349025642897,1
208,117.31027869751699,38.991437336413895,0,13.988356332778517,0.5318644905491059,1
209,117.31017346442624,38.99134677175153,0,13.569332654960341,-0.419023677818176,1
210,117.310065,38.991251,0,14.187371809965557,0.6180391550052153,1
211,117.30990214909833,38.99130781384068,0,15.427237586636851,1.2398657766712944,1
212,117.30972930196647,38.991353678901774,0,15.784937162246893,0.3576995756100416,1
213,117.30956388030664,38.991406326203006,0,15.448737184762997,-0.3361999774838953,1
214,117.30940724477155,38.99146660317144,0,15.105645444822553,-0.3430917399404443,1
215,117.3092339916264,38.99151528200385,0,15.921747415849987,0.8161019710274342,1
216,117.30907558888853,38.99156945875325,0,14.956795309211804,-0.964952106638183,1
217,117.30890816088834,38.99161843322123,0,15.460771141492627,0.5039758322808225,1
218,117.30874487920241,38.99167605376714,0,15.498012359924637,0.0372412184320101,1
219,117.3085753337894,38.99172697809909,0,15.708998654764102,0.210986294839465,1
220,117.30840666202396,38.99177415425865,0,15.49254606575376,-0.2164525890103413,1
221,117.30824294214466,38.99182735574635,0,15.336317229401514,-0.1562288363522466,1
222,117.30807711051614,38.99188131120089,0,15.53703073157138,0.2007135021698652,1
223,117.30790760377351,38.99193629856339,0,15.874321753270051,0.3372910216986718,1
224,117.30774655368026,38.99198809998652,0,15.063457016633588,-0.8108647366364625,1
225,117.30758540870775,38.99203698398904,0,14.950046069305857,-0.1134109473277309,1
226,117.30741228306249,38.992094068594405,0,16.253021270835113,1.3029752015292555,1
227,117.30724942708052,38.99214979371341,0,15.378308831787974,-0.8747124390471388,1
228,117.30708795948797,38.992199542129434,0,15.011147818761195,-0.3671610130267791,1
229,117.30691734532058,38.99225649596552,0,16.047654568433032,1.0365067496718368,1
230,117.30675339242107,38.992300587981795,0,14.993726298713677,-1.0539282697193553,1
231,117.30658826150584,38.99235438634802,0,15.474337675131434,0.4806113764177571,1
232,117.3064217256528,38.99241179564237,0,15.74484814668663,0.2705104715551965,1
233,117.30625507199906,38.9924645113699,0,15.549991237570893,-0.1948569091157371,1
234,117.30608704417232,38.99251284744629,0,15.484345183844784,-0.065646053726109,1
235,117.30592804213556,38.992564305043885,0,14.885219053833104,-0.5991261300116797,1
236,117.30576039836751,38.9926156503488,0,15.572742136521487,0.6875230826883829,1
237,117.30559817017776,38.99267631355138,0,15.55864168873669,-0.0141004477847968,1
238,117.30543268956387,38.992725833117866,0,15.324833772590948,-0.2338079161457429,1
239,117.3052651971406,38.992779742551484,0,15.667401113518578,0.34256734092763,1
240,117.305097,38.992831,0,15.613636498400748,-0.0537646151178297,1
241,117.30503186892203,38.99295989991493,0,15.39867792386131,-0.2149585745394376,1
242,117.3049662233797,38.99308494375605,0,15.017131082449993,-0.3815468414113177,1
