,LongitudeGPS,LatitudeGPS,TrackID,Velocity,Acceleration,Type
0,117.31143813155307,38.99699166085229,3,0.0,0.0,1
1,117.31141471759408,38.997064273367506,3,16.647632530426858,33.295265060853716,1
2,117.31139072546176,38.99713538581645,3,16.34929890960994,-0.5966672416338383,1
3,117.31136517611034,38.99720549029127,3,16.203833200474655,-0.2909314182705671,1
4,117.31133370676399,38.99727662259162,3,16.728034388777555,1.0484023766058002,1
5,117.31130168210989,38.99734630290195,3,16.455041122249366,-0.5459865330563787,1
6,117.31127021588284,38.99741278449345,3,15.753361872056136,-1.4033585003864602,1
7,117.3112349688963,38.99747748507838,3,15.625232728591346,-0.2562582869295795,1
8,117.31119690538335,38.997546056950625,3,16.60820939294488,1.9659533287070659,1
9,117.31115720646926,38.99761476467634,3,16.749740831157773,0.2830628764257881,1
10,117.31111247449458,38.997678165402235,3,16.080212980421614,-1.3390557014723186,1
11,117.31106998706497,38.997741913445516,3,15.965877947175887,-0.2286700664914534,1
12,117.31102384475739,38.99780665245219,3,16.45851676453728,0.9852776347227845,1
13,117.31097600268225,38.9978678094742,3,15.917022600214766,-1.0829883286450261,1
14,117.31092314009031,38.997930330058324,3,16.637154620492332,1.4402640405551317,1
15,117.31087217446024,38.99799238582758,3,16.372155309877442,-0.5299986212297796,1
16,117.31081619785921,38.998051733982315,3,16.364527335042858,-0.015255949669168,1
17,117.31076096143734,38.998107563321796,3,15.661870876912808,-1.405312916260101,1
18,117.31070227911755,38.99816636593144,3,16.549223716549275,1.7747056792729339,1
19,117.31064339574247,38.998225542488754,3,16.636245663346248,0.1740438935939466,1
20,117.31057959447166,38.99827654238591,3,15.818743647505043,-1.63500403168241,1
21,117.31051599764507,38.9983353406824,3,17.082219178418146,2.5269510618262068,1
22,117.31045328956462,38.99838546147055,3,15.546849913230483,-3.0707385303753263,1
23,117.31038641763482,38.99843634384094,3,16.17485280712741,1.2560057877938569,1
24,117.31031691477524,38.99848700698705,3,16.469434938325527,0.5891642623962312,1
25,117.31024463558315,38.99853440177753,3,16.344722889452783,-0.2494240977454893,1
26,117.31017468604087,38.99858334193785,3,16.26699075189258,-0.1554642751204085,1
27,117.31010004094124,38.998628990006274,3,16.416310456058245,0.2986394083313328,1
28,117.31002596272086,38.99867461524254,3,16.33626600039464,-0.1600889113272075,1
29,117.30994942823986,38.99871660954872,3,16.192271844442672,-0.2879883119039377,1
30,117.30987345560288,38.99875823817201,3,16.066037969587217,-0.2524677497109096,1
31,117.30979264806695,38.99879822600263,3,16.55708307826523,0.9820902173560242,1
32,117.30971424587042,38.998836091129576,3,15.953819066752073,-1.206528023026312,1
33,117.30963262295278,38.998873934541926,3,16.426753207915016,0.9458682823258862,1
34,117.30955071288037,38.998906802726914,3,15.932399994325909,-0.9887064271782151,1
35,117.30946498345835,38.99894260237666,3,16.820295592968105,1.7757911972843914,1
36,117.30938246060951,38.99897351937782,3,15.83336703940388,-1.973857107128449,1
37,117.30929583508237,38.99900451499192,3,16.48227116617576,1.29780825354376,1
38,117.30920934194478,38.99903183777788,3,16.13651284020626,-0.691516651938997,1
39,117.30912305132301,38.99906158705092,3,16.315352027671132,0.3576783749297405,1
40,117.30903351315676,38.99908393292464,3,16.253380722641197,-0.1239426100598706,1
41,117.30894296003716,38.99911047309129,3,16.726414876045553,0.9460683068087121,1
42,117.30885666454088,38.99913164769582,3,15.640319735854593,-2.172190280381919,1
43,117.30876244395338,38.99914960048704,3,16.76657635849388,2.252513245278571,1
44,117.30867354970424,38.99916960696047,3,15.9949868131764,-1.5431790906349576,1
45,117.30858123829312,38.999185736714765,3,16.35259055775118,0.715207489149563,1
46,117.30848902399666,38.99919961569796,3,16.23364845512571,-0.2378842052509427,1
47,117.30839719668191,38.99921095519719,3,16.069738739926276,-0.3278194303988684,1
48,117.30830168653921,38.99922482763565,3,16.792959148733956,1.4464408176153611,1
49,117.30821086090789,38.99923339133831,3,15.812615577780784,-1.9606871419063445,1
50,117.30811418842175,38.99923941762001,3,16.761689026929105,1.8981468982966412,1
51,117.30802366131445,38.99924571812142,3,15.708526387884787,-2.1063252780886366,1
52,117.30792944712546,38.999250831148274,3,16.32280671190603,1.2285606480424853,1
53,117.3078341395504,38.999249090635466,3,16.47667058174105,0.3077277396700424,1
54,117.30774018041733,38.99925211206738,3,16.252966007017328,-0.447409149447445,1
55,117.30764770949726,38.99924873653381,3,15.999481249390413,-0.5069695152538287,1
56,117.30755268363056,38.99924652682477,3,16.430786281509363,0.8626100642378987,1
57,117.30745762248392,38.999242391371865,3,16.455254723059568,0.04893688310041,1
58,117.30736605241542,38.999232941480926,3,15.965091867780727,-0.9803257105576826,1
59,117.30727090599547,38.999224309584825,3,16.555942868544268,1.181702001527082,1
60,117.30717723151874,38.999212799926795,3,16.390971067535638,-0.3299436020172593,1
61,117.3070860094876,38.99919819408041,3,16.0971506021346,-0.587640930802074,1
62,117.30699460547247,38.99918509175162,3,16.06395753580343,-0.0663861326623447,1
63,117.30690139930827,38.999167696169984,3,16.566966122655202,1.0060171737035475,1
64,117.30680878462384,38.99915114001589,3,16.424734127975576,-0.2844639893592529,1
65,117.30671791981419,38.99913078209015,3,16.34387726753983,-0.1617137208714894,1
66,117.30662829186186,38.99910846751337,3,16.266021610172622,-0.1557113147344182,1
67,117.30653861523938,38.99908613469544,3,16.275274645197413,0.0185060700495825,1
68,117.30645404485385,38.999058739332554,3,15.835347590985059,-0.8798541084247091,1
69,117.30636428368192,38.99903178603058,3,16.63131944940723,1.5919437168443409,1
70,117.30627801030727,38.99900533243332,3,16.029385411699625,-1.2038680754152082,1
71,117.30619004428354,38.998974102295215,3,16.714603299824656,1.370435776250062,1
72,117.30610821233802,38.998942440267406,3,15.799032335505295,-1.831141928638722,1
73,117.30602568373692,38.99890644840806,3,16.355959785601822,1.1138549001930542,1
74,117.30593965990272,38.99887455661869,3,16.472709437081186,0.2334993029587267,1
75,117.3058607978852,38.99883404553493,3,16.33831899556881,-0.2687808830247533,1
76,117.30578109865272,38.998796922708166,3,16.059166453929787,-0.558305083278043,1
77,117.305699295656,38.998755798541424,3,16.838372968957934,1.5584130300562933,1
78,117.30562182701593,38.99871685142913,3,15.94642517643944,-1.783895585036987,1
79,117.30554677279818,38.998675059798245,3,15.9576629081076,0.0224754633363204,1
80,117.30547295199536,38.9986290843955,3,16.350006184764734,0.7846865533142662,1
81,117.30539671316203,38.99858316798224,3,16.670139194027218,0.6402660185249687,1
82,117.30532949161308,38.99853682279414,3,15.53087839479221,-2.2785215984700145,1
83,117.3052585031025,38.998488296562826,3,16.339948598171468,1.6181404067585134,1
84,117.30518853428723,38.998437458470825,3,16.554811079199588,0.4297249620562411,1
85,117.30512159165325,38.99838580020395,3,16.304703146320527,-0.5002158657581219,1
86,117.30505540957972,38.998332688772635,3,16.442287895458836,0.2751694982766182,1
87,117.30499138640701,38.99827820554714,3,16.408898305853484,-0.0667791792107053,1
88,117.30493168713451,38.99822439597251,3,15.800759552679004,-1.216277506348959,1
89,117.30487305284284,38.99816709091086,3,16.28216372253816,0.9628083397183147,1
90,117.30481463056766,38.998112103512824,3,15.858629061667306,-0.84706932174171,1
91,117.30475706858425,38.998052746841616,3,16.529505315666466,1.3417525079983186,1
92,117.30470219505465,38.99799168260639,3,16.563963692105048,0.0689167528771648,1
93,117.30464931176925,38.99793176369717,3,16.158763494305227,-0.8104003955996433,1
94,117.30460049334003,38.99787114246576,3,15.904202580835722,-0.5091218269390083,1
95,117.30455071655894,38.99780493827612,3,17.052421876894467,2.2964385921174895,1
96,117.30450412720924,38.997741579698705,3,16.228851015487624,-1.6471417228136858,1
97,117.30446152042455,38.99767884321506,3,15.776081949906429,-0.9055381311623911,1
98,117.30441877421738,38.9976140371548,3,16.195524954551797,0.8388860092907358,1
99,117.30437635132236,38.9975459311296,3,16.827500562621662,1.2639512161397306,1
100,117.30434086699302,38.99747929090714,3,16.038974922676818,-1.5770512798896874,1
101,117.30430524954649,38.99741101056522,3,16.385228491233693,0.6925071371137506,1
102,117.30427160248061,38.99734330471405,3,16.14110168419976,-0.4882536140678653,1
103,117.3042390117388,38.99727588746257,3,16.01613090410436,-0.2499415601907984,1
104,117.30420966163939,38.997204040420264,3,16.76398073231531,1.4956996564218983,1
105,117.30418430461607,38.99713370987657,3,16.243211103802064,-1.0415392570264927,1
106,117.30415924972398,38.997065118636776,3,15.85675695121639,-0.7729083051713488,1
107,117.30413468724836,38.99699332387153,3,16.52117839638112,1.3288428903294616,1
108,117.3041163154872,38.996921839822136,3,16.2113432240368,-0.6196703446886431,1
109,117.30409864377238,38.996850156075475,3,16.23169473125055,0.0407030144274998,1
110,117.30408321046686,38.996777682240236,3,16.336686771960068,0.2099840814190372,1
111,117.30407297519214,38.99670408073484,3,16.463547052943355,0.2537205619665741,1
112,117.30406148483469,38.996632810291885,3,15.973758372786483,-0.9795773603137441,1
113,117.3040509304794,38.996559425654816,3,16.421632903532803,0.8957490614926407,1
114,117.30404497107071,38.99648629490737,3,16.296120190942123,-0.2510254251813606,1
115,117.30404128518244,38.99641260627083,3,16.39998315736113,0.2077259328380165,1
116,117.30404152234865,38.99634138751041,3,15.838382725357068,-1.1232008640081261,1
117,117.30404017287537,38.9962661256162,3,16.739106666108565,1.8014478815029946,1
118,117.3040449670352,38.9961931559606,3,16.248852531039745,-0.9805082701376406,1
119,117.30405254912961,38.9961213691092,3,16.018363242295518,-0.4609785774884543,1
120,117.30406171767451,38.99604767426821,3,16.465419550382148,0.8941126161732598,1
121,117.30407029930707,38.995975645258135,3,16.087045122457265,-0.7567488558497644,1
122,117.30408225168719,38.99590209155479,3,16.487531294490136,0.800972344065741,1
123,117.30409865624104,38.995829098307524,3,16.478717966357916,-0.01762665626444,1
124,117.30411826639262,38.99576096907762,3,15.525735770301177,-1.9059643921134786,1
125,117.30413751137267,38.99568526095028,3,17.162149704457228,3.2728278683121026,1
126,117.30415757343049,38.995614933840585,3,16.019814326081555,-2.2846707567513462,1
127,117.30418297384021,38.99554591398856,3,15.964818131175909,-0.1099923898112927,1
128,117.30421115888568,38.99547372522937,3,16.7768912972706,1.6241463321893796,1
129,117.30423788226945,38.9954049141493,3,15.984755369704121,-1.584271855132954,1
130,117.30426998982571,38.99533521451327,3,16.46396394365959,0.9584171479109358,1
131,117.30430368324645,38.99526775826875,3,16.092291448958736,-0.7433449894017059,1
132,117.30434075819186,38.99520047324313,3,16.277896625511087,0.3712103531047006,1
133,117.30437861860055,38.995134939871946,3,15.975669896042874,-0.6044534589364261,1
134,117.30441670182027,38.995065125918636,3,16.86361253010228,1.775885268118813,1
135,117.30446070637149,38.99500180208019,3,16.00523121001626,-1.7167626401720426,1
136,117.30450725244856,38.99493745307601,3,16.41694075857189,0.8234190971112625,1
137,117.30455049950169,38.99487299107908,3,16.16744397402209,-0.4989935690996035,1
138,117.30460187378175,38.99481069380085,3,16.455668040663966,0.5764481332837548,1
139,117.30465115529796,38.99474903950747,3,16.141699090042064,-0.6279379012438042,1
140,117.30470311509994,38.99468840183934,3,16.20204773311344,0.1206972861427502,1
141,117.30475581525788,38.99462891949639,3,16.061063802492484,-0.2819678612419096,1
142,117.30480802991883,38.99456598617809,3,16.653216279412312,1.184304953839657,1
143,117.30486941457299,38.99451408362226,3,15.678055500037487,-1.9503215587496499,1
144,117.30493012439749,38.99445483740287,3,16.843665987249917,2.331220974424859,1
145,117.30499389433615,38.99439844660293,3,16.696071561754078,-0.2951888509916785,1
146,117.30505535221691,38.99434407822127,3,16.094432260097552,-1.203278603313052,1
147,117.30511794199501,38.99429250254553,3,15.766821795383672,-0.6552209294277596,1
148,117.30518571974083,38.9942409689724,3,16.388525188559463,1.2434067863515814,1
149,117.30525486431753,38.99419039833061,3,16.410741132848354,0.0444318885777832,1
150,117.30532530638038,38.99414565781217,3,15.723902783088297,-1.3736766995201144,1
151,117.30539998394929,38.994098797402884,3,16.589391442858958,1.7309773195413207,1
152,117.3054732791596,38.99404902371471,3,16.82321221132336,0.4676415369288023,1
153,117.30554526019017,38.99400205469481,3,16.244927797832865,-1.1565688269809868,1
154,117.30562184391938,38.99396119665264,3,16.055598759737645,-0.3786580761904403,1
155,117.30570194473664,38.993923589643714,3,16.174969836448625,0.2387421534219598,1
156,117.305780685926,38.99387717115867,3,17.082021080809312,1.8141024887213746,1
157,117.30585776592365,38.99383937444814,3,15.752852819217424,-2.6583365231837774,1
158,117.30593762144292,38.993806298062985,3,15.640329350685143,-0.2250469370645618,1
159,117.3060225221005,38.99377160399031,3,16.579354004005083,1.8780493066398805,1
160,117.3061049942175,38.99373288282037,3,16.653942655767942,0.1491773035257182,1
161,117.30618951606206,38.99370312259083,3,16.03839953098151,-1.2310862495728614,1
162,117.30627278010469,38.993673080209106,3,15.866947508921141,-0.3429040441207398,1
163,117.30636170763879,38.993643932210354,3,16.681624313731337,1.6293536096203916,1
164,117.30644990053608,38.993617326209815,3,16.351758656566943,-0.6597313143287877,1
165,117.30654035048568,38.993590288872184,3,16.750238578612734,0.7969598440915817,1
166,117.30662694401488,38.99357158777813,3,15.534339357991124,-2.4317984412432203,1
167,117.30671940569722,38.99355066692939,3,16.645012820801238,2.221346925620228,1
168,117.30680960890054,38.99352890762241,3,16.324873617709123,-0.6402784061842297,1
169,117.30689655443527,38.99350863395626,3,15.68988056717997,-1.2699861010583078,1
170,117.30699205214347,38.99349398046621,3,16.824935876151393,2.270110617942848,1
171,117.307084241082,38.99347801053077,3,16.325421021605013,-0.9990297090927598,1
172,117.30717831451105,38.99346909350576,3,16.38063012614221,0.1104182090743961,1
173,117.30727218527431,38.99345448485694,3,16.547189101764594,0.3331179512447662,1
174,117.30736682302911,38.99344579317533,3,16.47150730477767,-0.1513635939738478,1
175,117.30745400431496,38.993440092348216,3,15.122122302006034,-2.698770005543274,1
176,117.30755275320264,38.99343173006096,3,17.16930478760816,4.09436497120425,1
177,117.30764193003671,38.99342808025535,3,15.435164109050971,-3.4682813571143747,1
178,117.30773917586728,38.993425936048666,3,16.815260133298025,2.7601920484941083,1
179,117.3078320431081,38.99343061342667,3,16.085346882950795,-1.4598265006944615,1
180,117.30792519842032,38.993429639743745,3,16.10292532809707,0.0351568902925479,1
181,117.30801957693896,38.99343473770248,3,16.352243918183444,0.49863718017275,1
182,117.30811740819195,38.9934383633218,3,16.928895218369746,1.153302600372605,1
183,117.30820627958511,38.99344834532457,3,15.520585955283567,-2.816618526172359,1
184,117.30829959091132,38.993453788896495,3,16.17380053553749,1.3064291605078502,1
185,117.30839383841102,38.9934657946016,3,16.50759237991698,0.6675836887589739,1
186,117.30848483965737,38.99348027608936,3,16.05545633330511,-0.9042720932237387,1
187,117.30858006494344,38.99349393672463,3,16.737263750643404,1.3636148346765893,1
188,117.3086701788119,38.99350998018357,3,15.979175142877732,-1.5161772155313429,1
189,117.30876263617199,38.99352620317878,3,16.383002644829542,0.8076550039036192,1
190,117.30885259784408,38.993547139087674,3,16.23153717598977,-0.302930937679541,1
191,117.30894601046131,38.99357538803589,3,17.32505572849838,2.187037105017218,1
192,117.30903593419977,38.9935980024677,3,16.336276601926265,-1.977558253144231,1
193,117.30912555664247,38.99361920925845,3,16.192803380365607,-0.286946443121316,1
194,117.30920951321798,38.993646212259364,3,15.70493743233775,-0.9757318960557129,1
195,117.30929542433721,38.993674627024475,3,16.137945986266836,0.8660171078581698,1
196,117.30938303255353,38.993705562395036,3,16.63218247578669,0.988472979039706,1
197,117.30946953591031,38.993739821637384,3,16.780927278931618,0.297489606289858,1
198,117.3095531555294,38.993773116611685,3,16.23949310166579,-1.082868354531655,1
199,117.30963364508459,38.99380691962736,3,15.813310395387415,-0.8523654125567504,1
200,117.309716695063,38.99384575656464,3,16.75276009392086,1.8788993970668884,1
201,117.30979659095095,38.99388080137554,3,15.856990424493869,-1.7915393388539798,1
202,117.30987586098118,38.99392629578817,3,17.03206585918802,2.350150869388301,1
203,117.30995104848664,38.99396828124009,3,16.002216270665418,-2.0596991770452036,1
204,117.31002661208194,38.994010763515696,3,16.119554000880967,0.2346754604310988,1
205,117.31010441181348,38.994050932811426,3,16.144051294363663,0.0489945869653923,1
206,117.3101751660514,38.994095912289076,3,15.799325263228335,-0.6894520622706573,1
207,117.31024581553062,38.9941445796738,3,16.317369140137327,1.0360877538179842,1
208,117.31031527190136,38.99419412132801,3,16.2944423175971,-0.0458536450804559,1
209,117.31038635258736,38.99424638559492,3,16.912623680083534,1.2363627249728708,1
210,117.31045257110975,38.99429693049005,3,16.042151546138825,-1.740944267889418,1
211,117.31052278536215,38.99435063198563,3,17.026780041696554,1.9692569911154578,1
212,117.3105821946245,38.99440078595971,3,15.160723048945465,-3.7321139855021777,1
213,117.31064389825583,38.994455914258054,3,16.249616663820685,2.1777872297504395,1
214,117.31070574741607,38.99451570851584,3,17.061863326114096,1.6244933245868225,1
215,117.31076157463403,38.994569057238415,3,15.292779609586892,-3.538167433054408,1
216,117.31081977082673,38.99463238374241,3,17.306495027825108,4.02743083647643,1
217,117.31087635024838,38.99468727487032,3,15.641344006400242,-3.3303020428497305,1
218,117.31092345190055,38.99475051743501,3,16.250806905679873,1.2189257985592619,1
219,117.31097837334707,38.99481538495993,3,17.268992228981457,2.0363706466031672,1
220,117.31102557269817,38.99487599180971,3,15.754977232272894,-3.0280299934171246,1
221,117.31107075642586,38.994938158168644,3,15.87846634444116,0.2469782243365302,1
222,117.31111499971956,38.99500500044814,3,16.716681862873934,1.676431036865548,1
223,117.3111557914103,38.99506952963885,3,15.98906803638364,-1.4552276529805859,1
224,117.31119514946195,38.99513343787939,3,15.75668491841914,-0.4647662359290017,1
225,117.31123505764371,38.99520115042942,3,16.563220854795166,1.6130718727520517,1
226,117.31126981067109,38.995269781148494,3,16.402235967657,-0.321969774276333,1
227,117.31130139092546,38.995341694715314,3,16.8986639423031,0.9928559492921991,1
228,117.31133755188526,38.995406869285056,3,15.784306126192234,-2.2287156322217285,1
229,117.31136625689463,38.995475170033544,3,15.979144186014535,0.3896761196446015,1
230,117.31139165215869,38.99554356635081,3,15.831297025736477,-0.295694320556116,1
231,117.311414862533,38.99561387082097,3,16.141464245268693,0.6203344390644325,1
232,117.3114365111277,38.995687005749495,3,16.68932283341779,1.0957171762981943,1
233,117.31145552817375,38.99576009890775,3,16.58416417143177,-0.2103173239720419,1
234,117.31147418094518,38.99583380288967,3,16.70506631367631,0.2418042844890778,1
235,117.31149357302652,38.99590252625998,3,15.646588083603232,-2.1169564601461524,1
236,117.3115024933761,38.99597276168391,3,15.695554671701563,0.097933176196662,1
237,117.31151365779267,38.99605045115119,3,17.38477315218814,3.3784369609731506,1
238,117.31152577686314,38.99612226130426,3,16.106633324818926,-2.5562796547384252,1
239,117.31152894405746,38.99619124731011,3,15.35155081699465,-1.5101650156485533,1
240,117.31153037700588,38.99626501511836,3,16.407081469993052,2.111061305996806,1
