,LongitudeGPS,LatitudeGPS,TrackID,Velocity,Acceleration,Type
0,117.31648474914184,38.99732342875284,7,0.0,0.0,1
1,117.31641588245719,38.997440927115726,7,14.356815497828451,14.356815497828451,1
2,117.31634210672274,38.997556798194225,7,14.375395087264454,0.018579589436003,1
3,117.31627619888258,38.99767172059358,7,13.990612836925392,-0.3847822503390628,1
4,117.31621072926923,38.9977919148702,7,14.513194919109392,0.5225820821839999,1
5,117.31613658674117,38.99791383318476,7,14.994540552650431,0.4813456335410393,1
6,117.31607175128944,38.99802778171775,7,13.854024067281507,-1.1405164853689236,1
7,117.31600259772277,38.99814164684052,7,14.000704062626898,0.1466799953453908,1
8,117.31593923824049,38.998261718729886,7,14.430478435396548,0.4297743727696499,1
9,117.31586758114558,38.99837967313041,7,14.50424491779009,0.0737664823935411,1
10,117.31579756451228,38.99850320607327,7,15.009794791532148,0.5055498737420585,1
11,117.31573080276664,38.9986132653705,7,13.529762924776941,-1.4800318667552066,1
12,117.3156599967703,38.99873237374464,7,14.589369511134416,1.059606586357475,1
13,117.31559267929433,38.99885314375049,7,14.634874439842138,0.0455049287077216,1
14,117.31553301641031,38.998966256623774,7,13.593308345765694,-1.041566094076444,1
15,117.31546174014323,38.999092454833054,7,15.324884977846908,1.7315766320812145,1
16,117.31539291758843,38.99920353836339,7,13.709158909706053,-1.6157260681408552,1
17,117.31532270130825,38.999328877964246,7,15.200707023817948,1.491548114111895,1
18,117.31525718751534,38.9994416781918,7,13.761309694878124,-1.4393973289398243,1
19,117.31518439946203,38.99956252458069,7,14.836801035941932,1.0754913410638078,1
20,117.31512083424545,38.99968270148115,7,14.447990847869667,-0.3888101880722648,1
21,117.31505192350232,38.999793596967905,7,13.693613278630291,-0.7543775692393755,1
22,117.31498315736185,38.99991717798351,7,14.971419155203172,1.2778058765728808,1
23,117.31492191713414,39.00002668952916,7,13.277361316252662,-1.6940578389505099,1
24,117.31484658303175,39.00014728649376,7,14.906427882261827,1.6290665660091648,1
25,117.314781,39.000267,7,14.467739121050254,-0.4386887612115729,1
26,117.31462315262321,39.00032681098599,7,15.175263155900092,0.707524034849838,1
27,117.31445326439692,39.00037842369503,7,15.762671079127346,0.5874079232272535,1
28,117.31428992652292,39.00044445712965,7,15.91032823428893,0.1476571551615837,1
29,117.31412770280666,39.00049423217115,7,15.071473939712394,-0.8388542945765352,1
30,117.31396788371967,39.00056120059203,7,15.690256010347701,0.6187820706353069,1
31,117.31380757113293,39.00061128205343,7,14.930641196794868,-0.7596148135528331,1
32,117.31364135292955,39.00067704757071,7,16.117967604420265,1.187326407625397,1
33,117.31348804003515,39.00073178481942,7,14.579589180480014,-1.5383784239402516,1
34,117.31332228202028,39.00078554192157,7,15.52099221599851,0.9414030355184959,1
35,117.31316214196899,39.00084262635008,7,15.224621670972551,-0.2963705450259582,1
36,117.3130006859796,39.000908119458124,7,15.738266366728766,0.5136446957562146,1
37,117.31283532105196,39.0009638330981,7,15.57486625913529,-0.1634001075934766,1
38,117.31267010095702,39.00102195035988,7,15.671680051248009,0.0968137921127195,1
39,117.31251046605898,39.00108278170102,7,15.363736112147558,-0.3079439391004506,1
40,117.31235028848589,39.0011367536058,7,15.086528328650251,-0.2772077834973068,1
41,117.31218450316658,39.001191075445696,7,15.547383008557558,0.4608546799073068,1
42,117.31201971529221,39.00124750609115,7,15.561053532850394,0.0136705242928361,1
43,117.31186402976299,39.001305568582666,7,14.922258411294234,-0.6387951215561607,1
44,117.31169929836352,39.0013675804383,7,15.81708608446759,0.8948276731733564,1
45,117.31154156279082,39.00142526562864,7,15.064232167464548,-0.7528539170030424,1
46,117.31137618823269,39.001485496822426,7,15.782062963211347,0.7178307957467993,1
47,117.31120925802776,39.00154015345112,7,15.652942540410852,-0.1291204228004954,1
48,117.31104651754003,39.00160331793788,7,15.719238651612965,0.0662961112021137,1
49,117.31088453007412,39.00165947219706,7,15.327297865135517,-0.3919407864774485,1
50,117.31072796975305,39.001712807787406,7,14.771618188994037,-0.5556796761414802,1
51,117.31056627873785,39.00177585680098,7,15.632366260602735,0.8607480716086986,1
52,117.31039930071957,39.001829368654214,7,15.607724516154928,-0.0246417444478073,1
53,117.31024242962508,39.00188697053224,7,14.992634032940492,-0.6150904832144359,1
54,117.3100758390106,39.00195213908003,7,16.116466308054527,1.1238322751140348,1
55,117.309915,39.002006,7,15.133940617881784,-0.9825256901727428,1
56,117.30980459634499,39.001913147949026,7,14.057560398789999,-1.076380219091785,1
57,117.30968895516095,39.001825248372214,7,13.978108966323127,-0.0794514324668718,1
58,117.30958237729952,39.001734970774805,7,13.623052027885164,-0.3550569384379632,1
59,117.30946622543699,39.001637288568126,7,14.789154140064687,1.166102112179523,1
60,117.3093573397315,39.00155388361801,7,13.21144623303506,-1.5777079070296267,1
61,117.30924473625751,39.00146182988297,7,14.122827080952096,0.9113808479170356,1
62,117.30912533249573,39.001368204744814,7,14.657531417055695,0.5347043361035997,1
63,117.30901310375484,39.001279943577465,7,13.797470542800232,-0.8600608742554634,1
64,117.3089026254275,39.0011857829131,7,14.169189184938473,0.3717186421382408,1
65,117.30879242979276,39.00109503855638,7,13.874072547558427,-0.2951166373800458,1
66,117.30868286133543,39.00100355706269,7,13.89682485476518,0.022752307206753,1
67,117.30856263257192,39.00091704154225,7,14.159290219466511,0.2624653647013311,1
68,117.30845996923078,39.000825063914355,7,13.538993966361753,-0.6202962531047582,1
69,117.30834265114996,39.00072720095735,7,14.872520608222656,1.333526641860903,1
70,117.30823096700013,39.000639032913824,7,13.7571137394253,-1.115406868797356,1
71,117.30811899074186,39.000545472324305,7,14.207852145030873,0.4507384056055734,1
72,117.30800342750432,39.000459076975424,7,13.856953059218961,-0.3508990858119123,1
73,117.30789731243179,39.000368028794405,7,13.65955400406867,-0.1973990551502904,1
74,117.30778617052992,39.00027752296614,7,13.911198589517465,0.2516445854487941,1
75,117.30767185277836,39.00018827243959,7,14.00280615284916,0.0916075633316957,1
76,117.30755575667831,39.000097889742555,7,14.200467104523296,0.1976609516741359,1
77,117.30744309481035,39.00000197389191,7,14.440650062707856,0.24018295818456,1
78,117.30732947204399,38.99991544607045,7,13.74695970523034,-0.6936903574775162,1
79,117.3072218159456,38.99982457478672,7,13.73487585492311,-0.0120838503072296,1
80,117.30711051313055,38.99973472366906,7,13.868314965908906,0.1334391109857958,1
81,117.306991182855,38.999634583999665,7,15.176453302652453,1.3081383367435464,1
82,117.30688596232783,38.99954946318161,7,13.124884565152646,-2.0515687374998066,1
83,117.30676865373115,38.99945228819954,7,14.81620392246088,1.6913193573082346,1
84,117.3066580929357,38.99936270685251,7,13.802291751477812,-1.013912170983069,1
85,117.306546,38.999275,7,13.745617271039054,-0.0566744804387582,1
86,117.30665954392167,38.99919061789706,7,13.576186126454607,-0.169431144584447,1
87,117.3067737312416,38.999095161491134,7,14.492475448899102,0.916289322444495,1
88,117.30689010252526,38.99900993959326,7,13.817698961415864,-0.6747764874832374,1
89,117.30700836130627,38.99892335849859,7,14.04006663131006,0.2223676698941954,1
90,117.30711627521268,38.9988364367063,7,13.430641745772288,-0.6094248855377717,1
91,117.30723398005064,38.998745656332744,7,14.33027198788559,0.899630242113302,1
92,117.30735481139237,38.99866413427971,7,13.827594130254443,-0.5026778576311468,1
93,117.30746866302003,38.998569035987934,7,14.443610428234994,0.6160162979805506,1
94,117.30757874635458,38.998485945902694,7,13.261229050338125,-1.1823813778968688,1
95,117.30769264366698,38.998392545321,7,14.308713589093458,1.0474845387553327,1
96,117.30780641047818,38.9983049137412,7,13.84213433017641,-0.4665792589170472,1
97,117.30793012663408,38.99822362376177,7,14.000175876956268,0.1580415467798577,1
98,117.30804073749664,38.998130562931244,7,14.087109457250449,0.0869335802941809,1
99,117.30815738335107,38.99804679243349,7,13.725038802819274,-0.3620706544311751,1
100,117.30826552488969,38.99795747313059,7,13.637301472691798,-0.0877373301274762,1
101,117.30838372489444,38.997871286291364,7,14.006448344765612,0.3691468720738147,1
102,117.30850507628288,38.997778550192336,7,14.707386444817761,0.7009381000521486,1
103,117.30861965663185,38.997689601228906,7,13.99535353022902,-0.7120329145887414,1
104,117.30873169270053,38.99760673136591,7,13.365991266299066,-0.6293622639299539,1
105,117.30884764519887,38.99751906694432,7,13.979544337770676,0.6135530714716104,1
106,117.3089604621521,38.99742816732813,7,14.043279519594883,0.0637351818242067,1
107,117.30907729058474,38.99733921798977,7,14.133534323200472,0.090254803605589,1
108,117.30918777080832,38.99724965922955,7,13.795857244801349,-0.337677078399123,1
109,117.30930778369222,38.99716404364735,7,14.078150074047102,0.2822928292457529,1
110,117.30941747128342,38.99707352400203,7,13.826145843833372,-0.2520042302137302,1
111,117.30953200334237,38.99698697834491,7,13.804868053322533,-0.0212777905108386,1
112,117.30964922053353,38.99690418392929,7,13.688229360727405,-0.1166386925951279,1
113,117.30976389291877,38.99680988755712,7,14.42725070681401,0.7390213460866057,1
114,117.30988008729642,38.99672671531227,7,13.651393315304114,-0.7758573915098967,1
115,117.309995,38.996637,7,14.076056621278475,0.4246633059743612,1
116,117.31010315700411,38.99654695954235,7,13.69685112766723,-0.379205493611245,1
117,117.3102158486907,38.9964588910172,7,13.810888839056755,0.1140377113895248,1
118,117.3103285412345,38.996370553083295,7,13.832206955500022,0.0213181164432665,1
119,117.3104332892656,38.99628904185373,7,12.809859290623386,-1.0223476648766354,1
120,117.31054144608585,38.99619957903368,7,13.649991333785788,0.8401320431624022,1
121,117.31065564635759,38.99610526599791,7,14.400673551363317,0.7506822175775287,1
122,117.31076928134468,38.99602366592236,7,13.370360009887095,-1.0303135414762217,1
123,117.31087887777173,38.99592732328245,7,14.299283112321959,0.9289231024348634,1
124,117.3109874348822,38.99584410796143,7,13.17696164268925,-1.122321469632709,1
125,117.31109215320181,38.995755442901014,7,13.38281394034719,0.2058522976579411,1
126,117.31120324493827,38.99566692036538,7,13.749911526517032,0.3670975861698409,1
127,117.31131821806693,38.99558221111102,7,13.691084562484836,-0.0588269640321961,1
128,117.31143178185413,38.99548699748339,7,14.43637174987475,0.7452871873899145,1
129,117.31153619552782,38.99540071013238,7,13.171231061582466,-1.2651406882922842,1
130,117.3116508563555,38.995319800627726,7,13.383943733345522,0.2127126717630556,1
131,117.31175951425993,38.99522607350833,7,14.028355931824635,0.6444121984791131,1
132,117.31186957728752,38.995135503675655,7,13.85264496833008,-0.175710963494554,1
133,117.31198274060611,38.99504984500527,7,13.651504417375037,-0.2011405509550439,1
134,117.31208739898197,38.99496172805194,7,13.334532778050956,-0.3169716393240805,1
135,117.31219820244884,38.99487663264025,7,13.462076598656086,0.1275438206051298,1
136,117.31230920740627,38.994787350223085,7,13.805396172336332,0.3433195736802457,1
137,117.3124229231556,38.99470194285615,7,13.66634756990212,-0.1390486024342117,1
138,117.31252791446856,38.9946078458623,7,13.849354479482844,0.1830069095807243,1
139,117.312638284253,38.99452345926154,7,13.380086113037693,-0.4692683664451511,1
140,117.31274667275373,38.994430591226276,7,13.941952047130485,0.5618659340927916,1
141,117.31286424292487,38.994345430611446,7,13.889124269086727,-0.052827778043758,1
142,117.31296679716385,38.99425661472235,7,13.269666203343,-0.6194580657437267,1
143,117.31308263353257,38.994172869886626,7,13.6722023970213,0.4025361936782996,1
144,117.31319231302474,38.994086933872524,7,13.459430882457202,-0.212771514564098,1
145,117.3133,38.993994,7,13.906769063620223,0.4473381811630208,1
146,117.313189231705,38.99389903996363,7,14.25247550514461,0.3457064415243867,1
147,117.31308754404154,38.993814180259406,7,12.894482889947305,-1.357992615197304,1
148,117.31297848372489,38.99372345028077,7,13.806424069199903,0.9119411792525973,1
149,117.31287331392865,38.99362783188195,7,13.987702302191957,0.1812782329920548,1
150,117.31276398739448,38.99354107109334,7,13.503386426120825,-0.4843158760711326,1
151,117.31265020092279,38.993449471949035,7,14.157815349641393,0.6544289235205678,1
152,117.31254739480148,38.993350950067985,7,14.105119490434443,-0.0526958592069491,1
153,117.31243463088342,38.99326219356967,7,13.869930745153063,-0.2351887452813806,1
154,117.3123338194756,38.993169308643964,7,13.51224417510301,-0.3576865700500527,1
155,117.3122203673324,38.99308401353119,7,13.641454631468347,0.1292104563653371,1
156,117.31211269798499,38.992986938530066,7,14.251357997169738,0.6099033657013901,1
157,117.31200760729872,38.99289309322745,7,13.83400382485453,-0.417354172315207,1
158,117.31189816855706,38.99280254853166,7,13.813832027017668,-0.0201717978368627,1
159,117.31179286420641,38.99271394482657,7,13.412365796505048,-0.4014662305126198,1
160,117.31168012715212,38.992627296709614,7,13.70251335119905,0.290147554694002,1
161,117.31157602950269,38.99252614149432,7,14.403245859972179,0.7007325087731289,1
162,117.31146366822114,38.992440780024964,7,13.579071359179077,-0.8241745007931023,1
163,117.31135867029732,38.992345539939784,7,13.946191352634969,0.3671199934558924,1
164,117.31124687119366,38.992254012840576,7,14.033364053634156,0.0871727009991865,1
165,117.31114817310049,38.99216286071179,7,13.24729222569827,-0.7860718279358849,1
166,117.31103676585111,38.992076865964556,7,13.569795149004618,0.322502923306347,1
167,117.31092873072521,38.99198512833517,7,13.828690575436687,0.2588954264320691,1
168,117.31081758514928,38.99189446172603,7,13.925141443687664,0.0964508682509777,1
169,117.31071678797335,38.99180250332011,7,13.43297137413717,-0.4921700695504949,1
170,117.31060653998082,38.99170776238301,7,14.204432532798752,0.771461158661582,1
171,117.31049805337958,38.99161863328894,7,13.642957618337118,-0.561474914461634,1
172,117.31038528207452,38.99152164953048,7,14.535694035953492,0.8927364176163746,1
173,117.31028367021176,38.991429018299044,7,13.535612762884417,-1.0000812730690747,1
174,117.31017593974788,38.99134286945601,7,13.358557213246135,-0.1770555496382826,1
175,117.310065,38.991251,7,14.010158860807374,0.6516016475612396,1
176,117.30989516030468,38.99130152202252,7,15.716761657093645,1.7066027962862709,1
177,117.30973010268673,38.99135709550559,7,15.546080002713971,-0.1706816543796741,1
178,117.30956684532791,38.99141036609324,7,15.302494575072219,-0.2435854276417526,1
179,117.30940558274752,38.99146030170641,7,15.002504997272863,-0.2999895777993551,1
180,117.3092406735569,38.99151477746663,7,15.48613004045811,0.4836250431852473,1
181,117.3090723347665,38.99156825550831,7,15.71702525222694,0.2308952117688285,1
182,117.30890871773305,38.99162379398429,7,15.430307782864494,-0.2867174693624452,1
183,117.30874485503125,38.99167286916093,7,15.176787994278403,-0.2535197885860914,1
184,117.30857691641366,38.99172518313488,7,15.636372888348838,0.459584894070435,1
185,117.30840603314944,38.99177807587715,7,15.896567266187077,0.2601943778382392,1
186,117.30824622000374,38.99183411617888,7,15.152431995815594,-0.7441352703714834,1
187,117.30807538250018,38.9918835808424,7,15.755789003148823,0.6033570073332299,1
188,117.3079137533887,38.99193164377769,7,14.956184281753952,-0.7996047213948714,1
189,117.30774170934582,38.991986360928,7,16.065497077663032,1.10931279590908,1
190,117.30758115912371,38.99204244884759,7,15.212652784714795,-0.8528442929482374,1
191,117.30741205272228,38.99209596380237,7,15.779900931334714,0.5672481466199191,1
192,117.30725364069038,38.99214227709848,7,14.627180189169291,-1.1527207421654229,1
193,117.30708341748783,38.99220304256414,7,16.188889661528137,1.5617094723588458,1
194,117.30691468323745,38.99225260428065,7,15.589321538182887,-0.5995681233452501,1
195,117.30675180377445,38.992306917150586,7,15.31754550947434,-0.2717760287085476,1
196,117.3065850493861,38.992361540650116,7,15.63923402776897,0.3216885182946303,1
197,117.30642469925618,38.99241198713788,7,14.95032298474576,-0.688911043023209,1
198,117.30625757753498,38.99246355405818,7,15.539879959912616,0.5895569751668557,1
199,117.30608848208612,38.99251357615271,7,15.63661216903568,0.0967322091230631,1
200,117.30592232140161,38.992572313666614,7,15.775755497387433,0.1391433283517536,1
201,117.30575608996706,38.99262335209455,7,15.44667568612626,-0.3290798112611721,1
202,117.30559770439737,38.99267373833569,7,14.790493214386503,-0.6561824717397577,1
203,117.30543301850362,38.992723362082685,7,15.26494193210437,0.4744487177178662,1
204,117.30526282350195,38.99277926602863,7,15.968468434141712,0.7035265020373433,1
205,117.305097,38.992831,7,15.442496276556927,-0.5259721575847855,1
206,117.30502719692511,38.99295866491671,7,15.424334924561148,-0.0181613519957793,1
207,117.30496147580091,38.99308072398042,7,14.71288973334454,-0.7114451912166082,1
208,117.30489243475299,38.993209473470536,7,15.509936558690926,0.7970468253463867,1
209,117.3048248502427,38.99334015805649,7,15.661383651060735,0.1514470923698088,1
210,117.30475638866179,38.993463252190374,7,14.911495710814929,-0.7498879402458059,1
211,117.30468804935875,38.993594444042195,7,15.73808892943267,0.8265932186177416,1
212,117.3046222319195,38.99371979863824,7,15.054717819403566,-0.6833711100291051,1
213,117.30455306565379,38.993841275125284,7,14.771086882041791,-0.2836309373617745,1
214,117.3044862289028,38.99396794161423,7,15.223079447538728,0.451992565496937,1
215,117.30442081233973,38.99409561120602,7,15.280499332709237,0.0574198851705088,1
216,117.30435520808062,38.99423028513423,7,16.01240639156128,0.7319070588520447,1
217,117.30429056734563,38.99435495729035,7,14.946160746666154,-1.0662456448951279,1
218,117.30421951679288,38.99447637513868,7,14.83177504702003,-0.1143856996461246,1
219,117.30415676118363,38.99460489412377,7,15.285171729270541,0.4533966822505118,1
220,117.3040869778342,38.994733776963926,7,15.548344486733315,0.2631727574627742,1
221,117.30402281655812,38.99485750234874,7,14.83301274190038,-0.7153317448329357,1
222,117.30394933587773,38.99498457664553,7,15.491393096634198,0.6583803547338185,1
223,117.30388037190829,38.99511571136356,7,15.75249816187429,0.2611050652400912,1
224,117.3038191594737,38.9952396220344,7,14.758864750163987,-0.9936334117103023,1
225,117.30374820436718,38.995372517051905,7,15.999007047513114,1.2401422973491272,1
226,117.3036784307367,38.99549772923601,7,15.172605650359554,-0.8264013971535604,1
227,117.30361162853194,38.99561795958708,7,14.56222682696882,-0.6103788233907341,1
228,117.30355006609868,38.99575031452596,7,15.649302893026535,1.0870760660577155,1
229,117.30347532801,38.995874078416676,7,15.202207315506998,-0.4470955775195371,1
230,117.30341242838402,38.99599973510566,7,14.992501663983857,-0.2097056515231408,1
231,117.30334654849143,38.99613407124999,7,15.985699250630606,0.9931975866467493,1
232,117.30327620150825,38.996259122468096,7,15.175937842817225,-0.8097614078133812,1
233,117.30320523112798,38.9963850232449,7,15.284074774674224,0.1081369318569987,1
234,117.30314118210917,38.996507666771706,7,14.717805855769697,-0.5662689189045267,1
235,117.303075,38.996637,7,15.47676407000512,0.7589582142354221,1
236,117.30314918227346,38.99676452624818,7,15.562058240202598,0.0852941701974785,1
237,117.30321807920262,38.99687994233179,7,14.147551904910177,-1.4145063352924208,1
238,117.30328936541937,38.99700848541281,7,15.564400823831653,1.4168489189214757,1
239,117.30335783019927,38.99712782531663,7,14.529243993634271,-1.0351568301973817,1
240,117.30343165441212,38.997251326897214,7,15.142311809753082,0.6130678161188108,1
241,117.30349653848805,38.99736985466504,7,14.322858284327449,-0.819453525425633,1
