,LongitudeGPS,LatitudeGPS,TrackID,Velocity,Acceleration,Type
0,117.30823050000001,39.0006405,7,0.0,0.0,1
1,117.3081182,39.00054946666667,7,14.022734840985855,14.022734840985855,1
2,117.3080059,39.000458433333336,7,14.022743478164982,8.6371791266e-06,1
3,117.3078936,39.0003674,7,14.022752120919009,8.6427540271e-06,1
4,117.3077813,39.00027636666667,7,14.022760761629655,8.6407106465e-06,1
5,117.307669,39.000185333333334,7,14.02276940181856,8.6401889039e-06,1
6,117.30755669999999,39.0000943,7,14.022778043017471,8.641198912e-06,1
7,117.3074444,39.00000326666667,7,14.022786683184055,8.640166584e-06,1
8,117.3073321,38.99991223333333,7,14.022795324360647,8.6411765921e-06,1
9,117.3072198,38.9998212,7,14.022803963493846,8.639133199e-06,1
10,117.3071075,38.999730166666666,7,14.022812605148596,8.64165475e-06,1
11,117.3069952,38.99963913333333,7,14.022821246291707,8.6411431113e-06,1
12,117.3068829,38.9995481,7,14.022829886402489,8.6401107815e-06,1
13,117.3067706,38.999457066666665,7,14.022838527523277,8.6411207878e-06,1
14,117.3066583,38.99936603333333,7,14.02284716812232,8.6405990434e-06,1
15,117.306546,38.999275,7,14.022855808199619,8.6400772989e-06,1
16,117.30666096666667,38.999187066666664,7,13.939396636420375,-0.0834591717792446,1
17,117.30677593333333,38.99909913333333,7,13.939405434644993,8.7982246182e-06,1
18,117.3068909,38.9990112,7,13.939414234425442,8.7997804492e-06,1
19,117.30700586666667,38.998923266666665,7,13.939423034194597,8.7997691551e-06,1
20,117.30712083333333,38.99883533333333,7,13.939431833952456,8.7997578593e-06,1
21,117.3072358,38.9987474,7,13.939440633699013,8.7997465563e-06,1
22,117.30735076666666,38.998659466666666,7,13.939449433434275,8.7997352622e-06,1
23,117.30746573333333,38.99857153333333,7,13.939458233654383,8.8002201082e-06,1
24,117.3075807,38.9984836,7,13.939467034438058,8.8007836752e-06,1
25,117.30769566666666,38.99839566666667,7,13.939475831005115,8.796567057e-06,1
26,117.30781063333333,38.998307733333334,7,13.939484633829501,8.8028243859e-06,1
27,117.3079256,38.9982198,7,13.939493431941116,8.7981116152e-06,1
28,117.30804056666666,38.99813186666667,7,13.93950223160859,8.7996674729e-06,1
29,117.30815553333333,38.998043933333335,7,13.939511031264766,8.7996561771e-06,1
30,117.30827049999999,38.997956,7,13.939519830909644,8.7996448777e-06,1
31,117.30838546666666,38.99786806666666,7,13.93952863103937,8.8001297254e-06,1
32,117.30850043333334,38.99778013333333,7,13.93953743016551,8.7991261406e-06,1
33,117.3086154,38.997692199999996,7,13.939546229776491,8.7996109812e-06,1
34,117.30873036666667,38.99760426666666,7,13.939555029376177,8.7995996854e-06,1
35,117.30884533333334,38.99751633333333,7,13.93956383053175,8.8011555732e-06,1
36,117.3089603,38.9974284,7,13.939572628541653,8.7980099028e-06,1
37,117.30907526666667,38.997340466666664,7,13.939581428107445,8.7995657925e-06,1
38,117.30919023333334,38.99725253333333,7,13.939590227661936,8.7995544913e-06,1
39,117.3093052,38.9971646,7,13.93959902720513,8.7995431937e-06,1
40,117.30942016666667,38.997076666666665,7,13.939607826737024,8.7995318943e-06,1
41,117.30953513333333,38.99698873333333,7,13.93961662625762,8.7995205966e-06,1
42,117.3096501,38.9969008,7,13.939625425766918,8.7995092972e-06,1
43,117.30976506666667,38.996812866666666,7,13.939634226832128,8.80106521e-06,1
44,117.30988003333333,38.99672493333333,7,13.939643023184404,8.7963522759e-06,1
45,117.309995,38.996637,7,13.939651825794234,8.8026098304e-06,1
46,117.31010516666667,38.9965489,7,13.660396742495823,-0.2792550832984109,1
47,117.31021533333333,38.9964608,7,13.660405002814493,8.2603186691e-06,1
48,117.3103255,38.9963727,7,13.660413264137247,8.2613227548e-06,1
49,117.31043566666666,38.9962846,7,13.660421524435117,8.2602978697e-06,1
50,117.31054583333334,38.996196499999996,7,13.660429786244318,8.2618092012e-06,1
51,117.310656,38.9961084,7,13.66043804601415,8.2597698317e-06,1
52,117.31076616666667,38.9960203,7,13.660446307295311,8.2612811614e-06,1
53,117.31087633333334,38.9959322,7,13.660454567551586,8.2602562745e-06,1
54,117.3109865,38.9958441,7,13.660462828811946,8.2612603602e-06,1
55,117.31109666666667,38.995756,7,13.660471089047427,8.2602354805e-06,1
56,117.31120683333333,38.9956679,7,13.660479350286987,8.2612395609e-06,1
57,117.311317,38.9955798,7,13.66048761100891,8.2607219234e-06,1
58,117.31142716666666,38.9954917,7,13.660495871213193,8.2602042824e-06,1
59,117.31153733333333,38.9954036,7,13.660504132421556,8.2612083627e-06,1
60,117.31164749999999,38.995315500000004,7,13.660512392605046,8.2601834901e-06,1
61,117.31175766666667,38.9952274,7,13.660520654299846,8.2616948003e-06,1
62,117.31186783333334,38.9951393,7,13.660528915487829,8.2611879826e-06,1
63,117.311978,38.9950512,7,13.660537173589521,8.2581016922e-06,1
64,117.31208816666667,38.9949631,7,13.66054543679649,8.2632069685e-06,1
65,117.31219833333333,38.994875,7,13.66055369487737,8.2580808805e-06,1
66,117.3123085,38.9947869,7,13.660561958063546,8.2631861762e-06,1
67,117.31241866666666,38.9946988,7,13.66057021612362,8.258060074e-06,1
68,117.31252883333333,38.9946107,7,13.66057847928901,8.2631653893e-06,1
69,117.312639,38.9945226,7,13.66058673886082,8.2595718105e-06,1
70,117.31274916666666,38.9944345,7,13.660594999954784,8.2610939636e-06,1
71,117.31285933333334,38.9943464,7,13.660603259516643,8.2595618593e-06,1
72,117.3129695,38.9942583,7,13.660611520589805,8.2610731624e-06,1
73,117.31307966666667,38.9941702,7,13.6606197806381,8.2600482951e-06,1
74,117.31318983333333,38.9940821,7,13.66062804169046,8.2610523595e-06,1
75,117.3133,38.993994,7,13.660636301717954,8.260027494e-06,1
76,117.31319216666667,38.99390256666667,7,13.79178924364992,0.1311529419319655,1
77,117.31308433333334,38.99381113333333,7,13.791797379293733,8.1356438137e-06,1
78,117.31297649999999,38.9937197,7,13.791805516413083,8.1371193499e-06,1
79,117.31286866666666,38.99362826666667,7,13.791813650550395,8.1341373122e-06,1
80,117.31276083333333,38.99353683333334,7,13.791821785641819,8.1350914236e-06,1
81,117.312653,38.9934454,7,13.791829922287175,8.1366453557e-06,1
82,117.31254516666667,38.99335396666667,7,13.79183805683653,8.1345493559e-06,1
83,117.31243733333334,38.993262533333336,7,13.79184619145395,8.1346174188e-06,1
84,117.3123295,38.9931711,7,13.79185432903278,8.1375788312e-06,1
85,117.31222166666666,38.99307966666667,7,13.791862465037047,8.1360042667e-06,1
86,117.31211383333333,38.992988233333335,7,13.791870599623481,8.1345864338e-06,1
87,117.312006,38.9928968,7,13.79187873568547,8.1360619895e-06,1
88,117.31189816666667,38.992805366666666,7,13.791886870172885,8.1344874143e-06,1
89,117.31179033333333,38.992713933333334,7,13.79189500621422,8.1360413358e-06,1
90,117.31168249999999,38.992622499999996,7,13.791903143209709,8.1369954881e-06,1
91,117.31157466666666,38.992531066666665,7,13.791911277223086,8.1340133775e-06,1
92,117.31146683333333,38.99243963333333,7,13.79191941122614,8.1340030533e-06,1
93,117.311359,38.9923482,7,13.791927547669243,8.1364431033e-06,1
94,117.31125116666666,38.992256766666664,7,13.791935684180366,8.1365111235e-06,1
95,117.31114333333333,38.99216533333333,7,13.791943818595511,8.134415145e-06,1
96,117.3110355,38.9920739,7,13.791951954564569,8.1359690576e-06,1
97,117.31092766666666,38.99198246666666,7,13.791960092009212,8.1374446435e-06,1
98,117.31081983333333,38.99189103333333,7,13.791968224907471,8.1328982589e-06,1
99,117.310712,38.9917996,7,13.79197636084555,8.1359380797e-06,1
100,117.31060416666666,38.99170816666667,7,13.791984495730485,8.1348849346e-06,1
101,117.31049633333333,38.99161673333333,7,13.791992632169325,8.13643884e-06,1
102,117.31038849999999,38.9915253,7,13.792000767033608,8.1348642826e-06,1
103,117.31028066666666,38.99143386666667,7,13.792008901887563,8.1348539549e-06,1
104,117.31017283333333,38.99134243333333,7,13.792017038295421,8.1364078586e-06,1
105,117.310065,38.991251,7,13.792025173128728,8.1348333065e-06,1
106,117.30989939999999,38.99130366666667,7,15.46383647134126,1.671811298212532,1
107,117.30973379999999,38.99135633333333,7,15.463826614071094,-9.8572701663e-06,1
108,117.3095682,38.991409,7,15.463816757594401,-9.8564766926e-06,1
109,117.3094026,38.991461666666666,7,15.463806900839694,-9.8567547067e-06,1
110,117.309237,38.991514333333335,7,15.463797044342716,-9.8564969786e-06,1
111,117.3090714,38.991566999999996,7,15.463787187031993,-9.8573107223e-06,1
112,117.30890579999999,38.991619666666665,7,15.463777330514738,-9.8565172557e-06,1
113,117.3087402,38.991672333333334,7,15.463767471684234,-9.858830504e-06,1
114,117.3085746,38.991725,7,15.463757617181933,-9.8545023004e-06,1
115,117.308409,38.991777666666664,7,15.463747759830648,-9.8573512854e-06,1
116,117.3082434,38.99183033333333,7,15.463737903272833,-9.8565578153e-06,1
117,117.30807779999999,38.991883,7,15.463728046437009,-9.856835824e-06,1
118,117.3079122,38.99193566666667,7,15.463718187555811,-9.8588811976e-06,1
119,117.3077466,38.99198833333333,7,15.463708332734935,-9.8548208758e-06,1
120,117.307581,38.992041,7,15.46369847586869,-9.8568662459e-06,1
121,117.3074154,38.99209366666667,7,15.463688618992302,-9.8568763871e-06,1
122,117.3072498,38.99214633333333,7,15.463678761837908,-9.8571543941e-06,1
123,117.3070842,38.992199,7,15.463668905209113,-9.8566287949e-06,1
124,117.3069186,38.99225166666667,7,15.463659048570175,-9.8566389379e-06,1
125,117.306753,38.99230433333334,7,15.46364919138536,-9.8571848159e-06,1
126,117.3065874,38.992357,7,15.463639334190402,-9.8571949572e-06,1
127,117.3064218,38.99240966666667,7,15.463629475485831,-9.8587045709e-06,1
128,117.3062562,38.992462333333336,7,15.463619620841556,-9.8546442757e-06,1
129,117.3060906,38.992515000000004,7,15.463609763616175,-9.8572253808e-06,1
130,117.305925,38.992567666666666,7,15.463599906380656,-9.8572355185e-06,1
131,117.3057594,38.992620333333335,7,15.463590049670746,-9.8567099105e-06,1
132,117.3055938,38.992673,7,15.463580192682823,-9.8569879228e-06,1
133,117.30542820000001,38.99272566666667,7,15.463570333917424,-9.8587653987e-06,1
134,117.3052626,38.992778333333334,7,15.46356047840868,-9.8555087433e-06,1
135,117.305097,38.992831,7,15.463550621658207,-9.8567504736e-06,1
136,117.3050296,38.99295786666667,7,15.262219086230337,-0.2013315354278706,1
137,117.3049622,38.99308473333333,7,15.262215100389588,-3.985840749e-06,1
138,117.3048948,38.9932116,7,15.262211115851608,-3.9845379796e-06,1
139,117.30482740000001,38.99333846666667,7,15.26220713065505,-3.9851965585e-06,1
140,117.30476,38.99346533333333,7,15.262203144799912,-3.9858551375e-06,1
141,117.30469260000001,38.9935922,7,15.262199159408297,-3.9853916149e-06,1
142,117.3046252,38.99371906666667,7,15.26219517587584,-3.9835324568e-06,1
143,117.3045578,38.99384593333333,7,15.26219118851329,-3.9873625504e-06,1
144,117.3044904,38.9939728,7,15.262187203761076,-3.9847522135e-06,1
145,117.304423,38.99409966666667,7,15.262183219374979,-3.9843860975e-06,1
146,117.30435560000001,38.99422653333333,7,15.262179233491068,-3.9858839109e-06,1
147,117.3042882,38.9943534,7,15.262175248909923,-3.984581145e-06,1
148,117.30422080000001,38.99448026666667,7,15.262171263670202,-3.9852397204e-06,1
149,117.3041534,38.99460713333333,7,15.262167277771901,-3.9858983012e-06,1
150,117.30408600000001,38.994734,7,15.262163293176371,-3.98459553e-06,1
151,117.3040186,38.99486086666667,7,15.262159307922264,-3.9852541072e-06,1
152,117.3039512,38.99498773333333,7,15.262155322009578,-3.9859126861e-06,1
153,117.30388380000001,38.9951146,7,15.26215133739966,-3.9846099185e-06,1
154,117.3038164,38.99524146666667,7,15.262147352131166,-3.9852684939e-06,1
155,117.30374900000001,38.99536833333333,7,15.262143365364885,-3.9867662807e-06,1
156,117.3036816,38.9954952,7,15.262139381765218,-3.983599667e-06,1
157,117.30361420000001,38.99562206666667,7,15.262135395457713,-3.9863075045e-06,1
158,117.3035468,38.99574893333333,7,15.262131410355456,-3.9851022571e-06,1
159,117.3034794,38.9958758,7,15.262127425716775,-3.9846386812e-06,1
160,117.30341200000001,38.99600266666667,7,15.262123440419513,-3.985297262e-06,1
161,117.3033446,38.99612953333333,7,15.262119454463667,-3.9859558463e-06,1
162,117.30327720000001,38.9962564,7,15.262115469810599,-3.9846530679e-06,1
163,117.3032098,38.99638326666667,7,15.262111484498954,-3.9853116451e-06,1
164,117.30314240000001,38.99651013333333,7,15.262107498528724,-3.9859702294e-06,1
165,117.303075,38.996637,7,15.262103513861275,-3.9846674493e-06,1
166,117.30314600000001,38.996759966666666,7,14.986843241312812,-0.2752602725484632,1
167,117.303217,38.99688293333333,7,14.986838876101574,-4.3652112378e-06,1
168,117.30328800000001,38.9970059,7,14.986834511530407,-4.3645711667e-06,1
169,117.303359,38.997128866666664,7,14.98683014566333,-4.3658670776e-06,1
170,117.30343,38.99725183333334,7,14.98682578172698,-4.3639363501e-06,1
171,117.30350100000001,38.9973748,7,14.986821415204062,-4.3665229175e-06,1
172,117.303572,38.99749776666667,7,14.986817049966547,-4.3652375155e-06,1
173,117.30364300000001,38.997620733333335,7,14.986812685369099,-4.3645974479e-06,1
174,117.303714,38.9977437,7,14.986808319475744,-4.3658933553e-06,1
175,117.303785,38.99786666666667,7,14.986803954222458,-4.365253286e-06,1
176,117.30385600000001,38.99798963333333,7,14.986799589609245,-4.3646132131e-06,1
177,117.303927,38.9981126,7,14.98679522370012,-4.365909124e-06,1
178,117.303998,38.998235566666665,7,14.98679085843107,-4.3652690511e-06,1
179,117.304069,38.99835853333333,7,14.98678649290189,-4.365529179e-06,1
180,117.30414,38.9984815,7,14.986782128777394,-4.3641244964e-06,1
181,117.30421100000001,38.99860446666667,7,14.98677776323771,-4.3655396844e-06,1
182,117.304282,38.998727433333336,7,14.986773397047445,-4.3661902644e-06,1
183,117.304353,38.9988504,7,14.986769032907167,-4.3641402776e-06,1
184,117.304424,38.99897336666667,7,14.986764665806207,-4.36710096e-06,1
185,117.304495,38.999096333333334,7,14.986760302045887,-4.3637603202e-06,1
186,117.30456600000001,38.9992193,7,14.986755936989642,-4.3650562453e-06,1
187,117.304637,38.999342266666666,7,14.986751569872938,-4.3671167038e-06,1
188,117.304708,38.99946523333333,7,14.98674720609684,-4.3637760978e-06,1
189,117.304779,38.9995882,7,14.986742840124652,-4.3659721882e-06,1
190,117.30485,38.99971116666667,7,14.986738475437871,-4.3646867809e-06,1
191,117.30492100000001,38.99983413333334,7,14.986734110100503,-4.365337368e-06,1
192,117.304992,38.9999571,7,14.98672974411255,-4.3659879534e-06,1
193,117.305063,39.00008006666667,7,14.986725378764675,-4.3653478752e-06,1
194,117.305134,39.000203033333335,7,14.986721014056878,-4.364707797e-06,1
195,117.305205,39.000326,7,14.986716648053157,-4.3660037203e-06,1
196,117.305362,39.000382,7,14.927793075241093,-0.0589235728120645,1
197,117.305519,39.000438,7,14.927783314324527,-9.7609165657e-06,1
198,117.305676,39.000494,7,14.927773556804084,-9.7575204432e-06,1
199,117.305833,39.000550000000004,7,14.927763797569927,-9.7592341568e-06,1
200,117.30599000000001,39.000606000000005,7,14.92775403662206,-9.7609478669e-06,1
201,117.306147,39.000662,7,14.927744276776933,-9.7598451276e-06,1
202,117.306304,39.000718,7,14.927734519804847,-9.7569720854e-06,1
203,117.306461,39.000774,7,14.92772476052895,-9.7592758976e-06,1
204,117.306618,39.00083,7,14.927714999539353,-9.760989597e-06,1
205,117.306775,39.000886,7,14.92770524194585,-9.757593503e-06,1
206,117.306932,39.000942,7,14.927695482638649,-9.7593072006e-06,1
207,117.307089,39.000998,7,14.927685721617756,-9.7610208929e-06,1
208,117.307246,39.001054,7,14.927675963992945,-9.7576248113e-06,1
209,117.30740300000001,39.001110000000004,7,14.927666204654438,-9.7593385071e-06,1
210,117.30756,39.001166,7,14.927656443012141,-9.7616422963e-06,1
211,117.307717,39.001222,7,14.927646686241179,-9.7567709627e-06,1
212,117.307874,39.001278,7,14.927636924578014,-9.7616631649e-06,1
213,117.308031,39.001334,7,14.927627167196075,-9.7573819389e-06,1
214,117.308188,39.00139,7,14.927617406102149,-9.761093926e-06,1
215,117.308345,39.001446,7,14.927607648404283,-9.7576978657e-06,1
216,117.308502,39.001502,7,14.927597888992736,-9.7594115473e-06,1
217,117.308659,39.001558,7,14.927588127572463,-9.761420273e-06,1
218,117.30881600000001,39.001614000000004,7,14.92757837043339,-9.7571390736e-06,1
219,117.30897300000001,39.001670000000004,7,14.927568610695486,-9.7597379032e-06,1
220,117.30913000000001,39.001726000000005,7,14.92755884924391,-9.7614515759e-06,1
221,117.309287,39.001782,7,14.927549091778479,-9.7574654312e-06,1
222,117.309444,39.001838,7,14.927539330306042,-9.7614724375e-06,1
223,117.309601,39.001894,7,14.927529572819736,-9.7574863052e-06,1
224,117.309758,39.00195,7,14.927519813324713,-9.7594950237e-06,1
225,117.309915,39.002006,7,14.927510052116034,-9.7612086787e-06,1
226,117.3100093,39.00193026666667,7,11.718230961808647,-3.209279090307387,1
227,117.3101036,39.001854533333336,7,11.718237027442933,6.0656342864e-06,1
228,117.3101979,39.001778800000004,7,11.718243091033411,6.0635904777e-06,1
229,117.3102922,39.001703066666664,7,11.718249159200177,6.0681667655e-06,1
230,117.3103865,39.00162733333333,7,11.718255224306516,6.0651063389e-06,1
231,117.31048080000001,39.0015516,7,11.718261288385655,6.0640791393e-06,1
232,117.31057510000001,39.00147586666667,7,11.71826735500786,6.0666222055e-06,1
233,117.3106694,39.001400133333334,7,11.718273419582207,6.0645743467e-06,1
234,117.3107637,39.0013244,7,11.718279486699634,6.0671174271e-06,1
235,117.310858,39.00124866666667,7,11.718285550752572,6.064052938e-06,1
236,117.3109523,39.001172933333336,7,11.718291617348603,6.0665960309e-06,1
237,117.3110466,39.0010972,7,11.718297683934033,6.0665854296e-06,1
238,117.3111409,39.001021466666664,7,11.718303747459016,6.0635249834e-06,1
239,117.3112352,39.00094573333333,7,11.71830981454372,6.0670847031e-06,1
240,117.3113295,39.00087,7,11.718315879584587,6.0650408678e-06,1
241,117.3114238,39.00079426666667,7,11.718321944106533,6.064521946e-06,1
242,117.3115181,39.000718533333334,7,11.718328011171602,6.067065069e-06,1
243,117.3116124,39.0006428,7,11.718334076701133,6.0655295311e-06,1
244,117.3117067,39.00056706666666,7,11.71834014120343,6.0645022977e-06,1
245,117.311801,39.00049133333333,7,11.718346207232253,6.0660288224e-06,1
246,117.3118953,39.0004156,7,11.718352273250446,6.0660181926e-06,1
247,117.3119896,39.000339866666664,7,11.718358337224789,6.0639743431e-06,1
248,117.31208389999999,39.00026413333333,7,11.718364403742282,6.0665174928e-06,1
249,117.31217819999999,39.0001884,7,11.718370468211823,6.0644695417e-06,1
250,117.31227249999999,39.000112666666666,7,11.718376535224532,6.0670127091e-06,1
251,117.31236679999999,39.000036933333334,7,11.718382600701686,6.0654771534e-06,1
252,117.3124611,38.999961199999994,7,11.718388665151577,6.0644498916e-06,1
253,117.3125554,38.99988546666666,7,11.718394731128043,6.065976466e-06,1
254,117.3126497,38.99980973333333,7,11.718400797093855,6.0659658114e-06,1
255,117.312744,38.999734,7,11.718406861015792,6.063921937e-06,1
256,117.31265236666667,38.99963076666666,7,13.945272780555905,2.2268659195401135,1
257,117.31256073333333,38.99952753333333,7,13.945279342053475,6.5614975693e-06,1
258,117.3124691,38.999424299999994,7,13.94528590046364,6.5584101652e-06,1
259,117.31237746666666,38.99932106666667,7,13.945292460696455,6.5602328156e-06,1
260,117.31228583333333,38.99921783333333,7,13.94529902150339,6.5608069342e-06,1
261,117.3121942,38.9991146,7,13.945305582968526,6.5614651366e-06,1
262,117.31210256666667,38.999011366666664,7,13.945312141928463,6.558959937e-06,1
263,117.31201093333333,38.99890813333333,7,13.94531870337738,6.5614489166e-06,1
264,117.3119193,38.998804899999996,7,13.94532526232109,6.5589437099e-06,1
265,117.31182766666666,38.99870166666666,7,13.945331823753794,6.5614327038e-06,1
266,117.31173603333333,38.99859843333333,7,13.94533838209904,6.5583452464e-06,1
267,117.31164439999999,38.9984952,7,13.945344943515522,6.5614164821e-06,1
268,117.31155276666667,38.99839196666667,7,13.945351503009,6.5594934782e-06,1
269,117.31146113333332,38.99828873333333,7,13.945358063160699,6.5601516983e-06,1
270,117.3113695,38.9981855,7,13.945364624552855,6.5613921567e-06,1
