,LongitudeGPS,LatitudeGPS,TrackID,Velocity,Acceleration,Type
0,117.31153091460065,38.9963404080736,0,0.0,0.0,1
1,117.3115309357021,38.99641397591666,0,16.36074223172254,32.72148446344508,1
2,117.31152616220471,38.99648427954535,0,15.656567081330252,-1.4083503007845763,1
3,117.31152219088511,38.99655944042121,0,16.729103453828298,2.1450727449960922,1
4,117.31151529736654,38.99663074879274,0,15.902953573103204,-1.6522997614501875,1
5,117.31150491685433,38.99670487114491,0,16.58140968676019,1.3569122273139698,1
6,117.3114918007672,38.996779553729354,0,16.76264542774086,0.362471481961343,1
7,117.31147347492451,38.99685211561681,0,16.444938246007965,-0.6354143634657916,1
8,117.31145802835327,38.996922697825624,0,15.92218581187424,-1.0455048682674501,1
9,117.31143673595795,38.99699316587552,0,16.097681052536583,0.3509904813246862,1
10,117.31141385958247,38.99706341449792,0,16.115153281928222,0.0349444587832792,1
11,117.31139070983247,38.997136837325634,0,16.811561945572766,1.3928173272890874,1
12,117.31136264840632,38.99720340536353,0,15.57828286578805,-2.4665581595694306,1
13,117.31133588634252,38.99727437040536,0,16.445769445832077,1.7349731600880531,1
14,117.31130547670436,38.99734240181355,0,16.016425216100302,-0.8586884594635507,1
15,117.31127094679684,38.997411776423526,0,16.542270409959617,1.0516903877186294,1
16,117.31123463586711,38.99747931294739,0,16.27788215457958,-0.5287765107600748,1
17,117.31119647334424,38.99754544689599,0,16.118814577605832,-0.3181351539474946,1
18,117.31115672219117,38.99761279831964,0,16.47880739650394,0.7199856377962135,1
19,117.31111317337229,38.997676486783256,0,16.039379543395885,-0.8788557062161075,1
20,117.3110695852987,38.997742462544934,0,16.49338766684422,0.9080162468966719,1
21,117.31102304972414,38.99780478390464,0,16.024321865239735,-0.9381316032089728,1
22,117.31097288216478,38.99786956480087,0,16.814619970638923,1.580596210798376,1
23,117.31092343763656,38.99792965771752,0,15.862764742170448,-1.903710456936949,1
24,117.31087242413827,38.997989745624594,0,16.009548862340935,0.2935682403409743,1
25,117.31081617333932,38.99805216515957,0,16.947381540064235,1.8756653554465998,1
26,117.3107615208311,38.99810883949824,0,15.750528386568995,-2.393706306990481,1
27,117.31070264124257,38.9981690890776,0,16.825258043081547,2.1494593130251047,1
28,117.31064386670205,38.99822148404435,0,15.45837004775242,-2.7337759906582555,1
29,117.31058394412624,38.99827996116006,0,16.624758891575564,2.3327776876462885,1
30,117.31051594169186,38.99833344419432,0,16.721381146491787,0.1932445098324465,1
31,117.31045261619502,38.998386220033986,0,16.048068599696464,-1.3466250935906459,1
32,117.31038544364931,38.99843702475549,0,16.19997049276652,0.3038037861401151,1
33,117.31031589540316,38.99848565528798,0,16.169386668307148,-0.0611676489187474,1
34,117.31024536402701,38.998535576864874,0,16.488035895889738,0.6372984551651797,1
35,117.31017567129418,38.99858376608113,0,16.12254356951287,-0.7309846527537331,1
36,117.31010100166185,38.998627856033984,0,16.207697246074915,0.1703073531240875,1
37,117.31002830520394,38.99867452836848,0,16.297093902969408,0.1787933137889866,1
38,117.30995189226134,38.99871813260915,0,16.384443766974115,0.1746997280094149,1
39,117.3098708582483,38.99875800118066,0,16.575918867807513,0.3829502016667945,1
40,117.30979196072559,38.99880069288496,0,16.615703086362704,0.0795684371103818,1
41,117.30971386207894,38.998835008910746,0,15.505980283023117,-2.219445606679173,1
42,117.30963397422104,38.99887303541353,0,16.191185105904157,1.3704096457620807,1
43,117.30954853894657,38.998910978333946,0,17.006920561899072,1.6314709119898296,1
44,117.30946735028223,38.99894047491507,0,15.48958349650379,-3.034674130790563,1
45,117.30938196750414,38.99897227197234,0,16.363651824442737,1.748136655877893,1
46,117.30929732543235,38.99900380465376,0,16.22279142720179,-0.2817207944818918,1
47,117.30920870318978,38.99903359110438,0,16.68779756751303,0.9300122806224778,1
48,117.30912055749816,38.99906037107326,0,16.357112353977527,-0.6613704270710059,1
49,117.30903657029084,38.99908348508851,0,15.398926083262568,-1.9163725414299186,1
50,117.30894638477987,38.99910925777256,0,16.60730700587128,2.416761845217426,1
51,117.30885580597088,38.99912920215215,0,16.271081603342527,-0.6724508050575082,1
52,117.30876202774942,38.9991510419787,0,16.91992093858371,1.2976786704823695,1
53,117.30867378238419,38.99916737931126,0,15.678361692443413,-2.483118492280596,1
54,117.30858139023394,38.999185140628995,0,16.449542356570415,1.5423613282540032,1
55,117.30848782173625,38.99920048325075,0,16.527604278301677,0.1561238434625238,1
56,117.30839469730272,38.9992122476311,0,16.306075277743417,-0.4430580011165191,1
57,117.3083005768301,38.99922416690404,0,16.481517164359612,0.3508837732323897,1
58,117.30820929927717,38.999233280104455,0,15.905265117512245,-1.1525040936947342,1
59,117.30811483716603,38.99924007141372,0,16.39571480731594,0.9808993796073899,1
60,117.30802270631283,38.999247236495194,0,16.00261824406197,-0.7861931265079392,1
61,117.30792910717916,38.999250291479264,0,16.191112078169564,0.376987668215186,1
62,117.30783548070865,38.999253714008596,0,16.199466525233685,0.0167088941282429,1
63,117.30773820022834,38.99925211971781,0,16.816840260398013,1.2347474703286565,1
64,117.30764553581675,38.99924986252884,0,16.02316691645093,-1.5873466878941684,1
65,117.30755340169596,38.9992456621587,0,15.951027251444508,-0.1442793300128429,1
66,117.30745752411488,38.999241888724214,0,16.59187483716471,1.2816951714404041,1
67,117.30736322300419,38.99923150251837,0,16.46103642636318,-0.2616768216030607,1
68,117.30726943637282,38.99922182143278,0,16.351620178765156,-0.2188324951960468,1
69,117.3071753342285,38.999213712644874,0,16.363463973942984,0.0236875903556566,1
70,117.30708516756383,38.999200831452015,0,15.844731189756308,-1.037465568373353,1
71,117.30699113568677,38.999184472378715,0,16.653889604681613,1.6183168298506097,1
72,117.30690101055872,38.999169056116436,0,15.949291163884432,-1.4091968815943616,1
73,117.30680956497595,38.99914815430472,0,16.474064172210593,1.0495460166523216,1
74,117.30672060397443,38.99913165389155,0,15.807089240641156,-1.3339498631388729,1
75,117.30662803887746,38.999108543879956,0,16.803425458996596,1.9926724367108797,1
76,117.30653955544008,38.99908504202315,0,16.161211235973244,-1.2844284460467037,1
77,117.30645007433615,38.99906084277792,0,16.37478840154904,0.4271543311515913,1
78,117.30636510494742,38.99903248143858,0,15.982578229628466,-0.7844203438411483,1
79,117.30627604421271,38.999004875903246,0,16.571646954953227,1.1781374506495226,1
80,117.30619289460235,38.998975561698145,0,15.780447050545478,-1.5823998088154987,1
81,117.30610504277034,38.99894011126797,0,17.1083690837056,2.6558440663202454,1
82,117.3060244153587,38.99890601875113,0,15.864056697413004,-2.4886247725851938,1
83,117.30594137392897,38.99887208578835,0,16.215229784151727,0.7023461734774479,1
84,117.30585747496617,38.99883799255366,0,16.363047577393083,0.2956355864827103,1
85,117.30578025416371,38.9987960896234,0,16.27765558946689,-0.1707839758523875,1
86,117.3057007791522,38.998759019896006,0,16.019865382980214,-0.5155804129733497,1
87,117.30562209519546,38.99871862761723,0,16.298096180696625,0.5564615954328218,1
88,117.30554639203015,38.99867312000734,0,16.541264783680994,0.4863372059687379,1
89,117.30547029752532,38.99863141358499,0,16.093235109228825,-0.8960593489043376,1
90,117.30539705068415,38.998585008524635,0,16.332926828047093,0.4793834376365353,1
91,117.30532823799618,38.998535946066006,0,16.13987292355135,-0.3861078089914827,1
92,117.30525841119183,38.99848553373886,0,16.472295130164184,0.6648444132256657,1
93,117.30518914768886,38.998436876817536,0,16.13677024006447,-0.6710497801994251,1
94,117.30512284718026,38.99838786625495,0,15.814714284831888,-0.6441119104651669,1
95,117.3050570459512,38.99833283884891,0,16.706120113503612,1.7828116573434478,1
96,117.3049937426052,38.99827798427581,0,16.38664751262343,-0.6389452017603645,1
97,117.30493154765315,38.998225184606746,0,15.919370007413592,-0.9345550104196754,1
98,117.30487281675336,38.99816778318556,0,16.309328727367923,0.7799174399086617,1
99,117.30481468833888,38.99810784974314,0,16.690856948998594,0.7630564432613411,1
100,117.30475652996941,38.99805107333219,0,16.13896133833104,-1.1037912213351078,1
101,117.30469907598842,38.99799034285973,0,16.763439532616182,1.248956388570285,1
102,117.3046490498715,38.99793090462863,0,15.795094034189509,-1.936690996853347,1
103,117.30460011873363,38.9978690512205,0,16.147333509314848,0.7044789502506781,1
104,117.30455115449007,38.99780884593467,0,15.839321825607142,-0.6160233674154121,1
105,117.30450473980079,38.997744137785574,0,16.47538501851798,1.2721263858216751,1
106,117.30446092423969,38.99767617359654,0,16.90555316865544,0.8603363002749234,1
107,117.30441603244965,38.9976115060989,0,16.340891214439868,-1.1293239084311466,1
108,117.3043799894471,38.99754627739404,0,15.787229164810963,-1.1073240992578093,1
109,117.30434089807537,38.99747831403972,0,16.555738956490597,1.5370195833592675,1
110,117.30430461017124,38.99741097623252,0,16.235577322818237,-0.6403232673447192,1
111,117.3042680376498,38.99734343535331,0,16.296261975819867,0.1213693060032597,1
112,117.30423976183461,38.997274972577166,0,15.990532965536875,-0.6114580205659834,1
113,117.30420925341718,38.99720557674855,0,16.308873057568555,0.6366801840633585,1
114,117.3041847542052,38.99713326775957,0,16.628932777344197,0.6401194395512846,1
115,117.30415752644456,38.99706389548675,0,16.129462783309954,-0.9989399880684857,1
116,117.30413573529998,38.996992708311836,0,16.27314680327526,0.2873680399306124,1
117,117.30411775282776,38.996920545344416,0,16.346503589416017,0.1467135722815129,1
118,117.3040979920234,38.99684687989006,0,16.734682469279537,0.7763577597270412,1
119,117.30408428533887,38.99677647708723,0,15.83508205278902,-1.799200832981036,1
120,117.30407117963358,38.996707284693734,0,15.553514577584377,-0.5631349504092853,1
121,117.30406195221225,38.99663118588606,0,16.998583959560968,2.890138763953182,1
122,117.30405084764988,38.99655769270601,0,16.456442323947194,-1.084283271227548,1
123,117.30404572685323,38.9964838248679,0,16.45128294449942,-0.0103187588955436,1
124,117.30404234539738,38.99641463564521,0,15.398076565855577,-2.106412757287689,1
125,117.30404239509059,38.99634096446807,0,16.383724528342192,1.97129592497323,1
126,117.30404183040004,38.996265870186505,0,16.700491457053914,0.6335338574234441,1
127,117.30404310671574,38.99619284556096,0,16.24143393848557,-0.9181150371366869,1
128,117.30404959274402,38.996121387640706,0,15.931008057542034,-0.6208517618870744,1
129,117.30406023718592,38.99604975071981,0,16.0372024783227,0.2123888415613351,1
130,117.30406910548089,38.995975093260455,0,16.67366452826945,1.272924099893494,1
131,117.30408391701947,38.99590175828664,0,16.508654223299168,-0.3300206099405614,1
132,117.30410028360184,38.995829812661064,0,16.248117708808,-0.521073028982336,1
133,117.30411722163544,38.99575855179285,0,16.115831833041455,-0.2645717515330901,1
134,117.30413365506423,38.995686635880695,0,16.243627992967998,0.2555923198530863,1
135,117.30415829764117,38.99561683829438,0,16.096024371056256,-0.2952072438234836,1
136,117.30418505399308,38.99554517968391,0,16.593597528161173,0.9951463142098333,1
137,117.30421091009764,38.9954753049575,0,16.169281172244954,-0.8486327118324368,1
138,117.30423974252231,38.995407410102885,0,15.900252016562849,-0.5380583113642103,1
139,117.30427168351227,38.9953372535257,0,16.5500459186712,1.2995878042166993,1
140,117.30430201329388,38.9952682749409,0,16.21113010432273,-0.6778316286969357,1
141,117.30433844466683,38.99520081154003,0,16.270999425341557,0.1197386420376532,1
142,117.30437819372038,38.995132587480946,0,16.65534484211072,0.7686908335383222,1
143,117.3044192412317,38.99506793194644,0,16.033804392518245,-1.243080899184946,1
144,117.30445847548795,38.99500170547781,0,16.214280989255194,0.3609531934738968,1
145,117.30450517354998,38.99493602836222,0,16.687721396231183,0.946880813951978,1
146,117.30455067431488,38.99487402941725,0,15.873138492983166,-1.629165806496033,1
147,117.30459964136438,38.994811209998936,0,16.334135514093514,0.921994042220696,1
148,117.30464799327358,38.994751377250246,0,15.713001906313337,-1.2422672155603536,1
149,117.30470276855407,38.99468813404626,0,16.95427806538827,2.482552318149864,1
150,117.30475609909378,38.99462719230899,0,16.390439391137,-1.1276773485025373,1
151,117.30480974974387,38.99456673536271,0,16.332759111038957,-0.1153605601960876,1
152,117.30486796980995,38.99451422654517,0,15.415076052089518,-1.8353661178988787,1
153,117.30492773892595,38.994451182655524,0,17.415281804162007,4.000411504144978,1
154,117.30499139760435,38.99439911567266,0,15.973171234898341,-2.88422113852733,1
155,117.30505516817875,38.99434197132842,0,16.822386093549962,1.6984297173032417,1
156,117.30511870433197,38.9942943111625,0,15.262422609506416,-3.1199269680870927,1
157,117.30518917517817,38.99424143673132,0,16.93016550100675,3.335485783000671,1
158,117.30525733673515,38.99419233379041,0,16.063776605829073,-1.7327777903553567,1
159,117.30532701014133,38.994144440882515,0,16.07687491235921,0.0261966130602715,1
160,117.30539720626318,38.99409396422704,0,16.529382477417247,0.9050151301160767,1
161,117.30547302784164,38.99405155451103,0,16.14626084928786,-0.7662432562587753,1
162,117.30554532999533,38.994003144373075,0,16.494844334568494,0.6971669705612697,1
163,117.305623595061,38.99396054757336,0,16.514749244531593,0.039809819926198,1
164,117.30570004735935,38.99392332204901,0,15.593379992509542,-1.842738504044103,1
165,117.30577518492689,38.99388037971495,0,16.12036162318366,1.0539632613482333,1
166,117.30585790089707,38.993845680281275,0,16.24662854181521,0.2525338372631012,1
167,117.30593680245245,38.993808119006744,0,15.99260716823325,-0.5080427471639197,1
168,117.30602277953153,38.99377219242795,0,16.872311491396033,1.7594086463255678,1
169,117.3061062889758,38.99373510432691,0,16.624522356089177,-0.4955782706137128,1
170,117.30618986997884,38.99370271907956,0,16.14228424953102,-0.9644762131163134,1
171,117.30627464279637,38.993671311514824,0,16.232168792806064,0.1797690865500883,1
172,117.30636365144936,38.99364606195566,0,16.377412144685795,0.2904867037594627,1
173,117.30644714930958,38.9936187753742,0,15.656041490081707,-1.4427413092081771,1
174,117.30653657315851,38.99358992393014,0,16.735316236401435,2.1585494926394553,1
175,117.30662771697297,38.993569469822496,0,16.39732727281061,-0.6759779271816484,1
176,117.30671747333383,38.993549463744415,0,16.139315411212834,-0.516023723195552,1
177,117.30680929908911,38.993530965031454,0,16.39613502578428,0.5136392291428891,1
178,117.30690134686706,38.993511041907446,0,16.515439430854205,0.2386088101398514,1
179,117.30699304816153,38.99349233660723,0,16.38692243224813,-0.2570339972121474,1
180,117.30708398276103,38.993476295655285,0,16.117364661842185,-0.539115540811892,1
181,117.30718002156063,38.993465999020906,0,16.757050891466257,1.279372459248144,1
182,117.30726571355794,38.99345259316473,0,15.108532561546445,-3.2970366598396232,1
183,117.30736151726865,38.9934434303498,0,16.684134599675957,3.151204076259024,1
184,117.30745583630271,38.993436978723096,0,16.36562585747219,-0.6370174844075365,1
185,117.30754952557588,38.99343421637235,0,16.20540888549982,-0.3204339439447352,1
186,117.30764262991802,38.99343064969837,0,16.112194889473802,-0.1864279920520389,1
187,117.30774227014587,38.99342821545981,0,17.23086353809626,2.2373372972449133,1
188,117.30783224019024,38.99342955853428,0,15.553778834050629,-3.354169408091259,1
189,117.3079253982682,38.99342739940203,0,16.10910565080023,1.1106536334992043,1
190,117.30801743620411,38.99343310101555,0,15.958788452066997,-0.3006343974664674,1
191,117.30811710780499,38.99344102012616,0,17.31756117836993,2.7175454526058687,1
192,117.3082097882569,38.993445103721946,0,16.045110193812814,-2.5449019691142354,1
193,117.30829987083553,38.99345654113268,0,15.776746543208,-0.536727301209627,1
194,117.30839426506516,38.99346264360294,0,16.37194922715842,1.1904053679008406,1
195,117.30848831818196,38.99347824732126,0,16.622877228388546,0.5018560024602507,1
196,117.30857811103239,38.99349137751004,0,15.792572323893872,-1.6606098089893493,1
197,117.3086676333734,38.99350681978395,0,15.850026273633668,0.1149078994795936,1
198,117.30876141482966,38.99352729364125,0,16.837013205042144,1.9739738628169512,1
199,117.30884984552605,38.99354667897559,0,15.881160560077781,-1.911705289928726,1
200,117.30894534524579,38.99356945166863,0,17.266097426893985,2.7698737336324086,1
201,117.30903826598441,38.993598958117595,0,17.349673146537615,0.1671514392872595,1
202,117.30912346380707,38.993624373667316,0,15.773473378484692,-3.1523995361058468,1
203,117.30921030875734,38.993644472170814,0,15.66204416109909,-0.2228584347712044,1
204,117.30929660866171,38.993677469327544,0,16.623822649923888,1.9235569776495964,1
205,117.30938685109781,38.99371135346271,0,17.322791816507724,1.397938333167673,1
206,117.3094661161062,38.99373991824545,0,15.101628696009623,-4.442326240996202,1
207,117.3095534987133,38.99377166208893,0,16.672007229637973,3.1407570672567005,1
208,117.3096343512258,38.993807399619676,0,16.076804322265975,-1.1904058147439969,1
209,117.30971459886136,38.993846002696394,0,16.312201589904003,0.4707945352760561,1
210,117.30979818463143,38.99388342865695,0,16.673338240134736,0.7222733004614668,1
211,117.30987175529857,38.99392475898734,0,15.690320321812779,-1.9660358366439148,1
212,117.30995040823605,38.99396379358766,0,16.129907534821736,0.8791744260179151,1
213,117.3100282567515,38.994008938599265,0,16.788450010769534,1.3170849518955947,1
214,117.31009992292076,38.99405159167715,0,15.601800930173342,-2.373298161192384,1
215,117.31017769366161,38.99409560570166,0,16.628375381320183,2.0531489022936817,1
216,117.31024595576862,38.99414572088034,0,16.23028679826582,-0.7961771661087269,1
217,117.31031893841812,38.99419188225396,0,16.2639123400322,0.06725108353276,1
218,117.31038284178737,38.99424536092965,0,16.230971368448355,-0.0658819431676889,1
219,117.31045445999871,38.99429385498193,0,16.417682943045428,0.3734231491941458,1
220,117.31052126714022,38.99434462435451,0,16.149751828480845,-0.5358622291291653,1
221,117.31058056017321,38.99440486147162,0,16.866703269123658,1.4339028812856256,1
222,117.31064409332957,38.99445964143607,0,16.401267457277697,-0.930871623691921,1
223,117.31070294416352,38.9945176367802,0,16.426074906364683,0.0496148981739708,1
224,117.31076409853146,38.9945709227457,0,15.87939980359171,-1.0933502055459456,1
225,117.31081723533968,38.99463214112152,0,16.42260062498924,1.0864016427950602,1
226,117.3108744414315,38.9946929905255,0,16.75972187918368,0.674242508388879,1
227,117.31092753391417,38.99475170447309,0,15.959504437325696,-1.600434883715966,1
228,117.31097702091596,38.99480983228307,0,15.500630565024387,-0.9177477446026181,1
229,117.31102112279395,38.99487668725449,0,16.70803265671741,2.414804183386046,1
230,117.31107357844655,38.99493622033461,0,16.046424361951345,-1.3232165895321302,1
231,117.31111485479974,38.99500236993272,0,16.349659423393227,0.6064701228837635,1
232,117.31115955605615,38.99506628104692,0,16.177430189793366,-0.344458467199722,1
233,117.31119494323644,38.995136202740625,0,16.709535390573514,1.0642104015602953,1
234,117.31123979398242,38.995201280654605,0,16.41805346174803,-0.5829638576509666,1
235,117.31127277690432,38.99527014284598,0,16.34091408847607,-0.1542787465439233,1
236,117.31130627388951,38.99534107816872,0,16.804165510005728,0.9265028430593176,1
237,117.31133528558674,38.99540896418962,0,15.908127718269647,-1.7920755834721618,1
238,117.31136914741056,38.99547811681502,0,16.45487234346302,1.093489250386746,1
239,117.31139091331323,38.995546873449534,0,15.746768777822176,-1.4162071312816877,1
240,117.3114160013069,38.99561871990248,0,16.555867196087018,1.618196836529684,1
