,LongitudeGPS,LatitudeGPS,TrackID,Velocity,Acceleration,Type
0,117.31136454267926,38.99720480204222,4,0.0,0.0,1
1,117.31133321357287,38.99727326681643,4,16.16005020376805,32.3201004075361,1
2,117.31130446881579,38.99734332573949,4,16.353316346040042,0.386532284543982,1
3,117.31126853063599,38.99741259537815,4,16.609978648466097,0.5133246048521087,1
4,117.3112351835058,38.997479445083776,4,15.944824112323245,-1.3303090722857043,1
5,117.3111948559665,38.99754687366798,4,16.536151473817007,1.1826547229875253,1
6,117.31115598782638,38.99760994746877,4,15.552640713497178,-1.9670215206396584,1
7,117.31111495566442,38.9976770726807,4,16.526880678963288,1.9484799309322192,1
8,117.31106914483038,38.99774324175543,4,16.710211184429355,0.366661010932134,1
9,117.31102190725122,38.99780757083898,4,16.471832742701945,-0.4767568834548186,1
10,117.31097330033197,38.997870510214184,4,16.32465420463088,-0.2943570761421341,1
11,117.31092451105484,38.99793004332659,4,15.696894995391435,-1.2555184184788857,1
12,117.310872379799,38.997990807909765,4,16.24173950943948,1.089689028096089,1
13,117.3108195518599,38.9980514353027,4,16.28356924260103,0.0836594663230983,1
14,117.31076056195975,38.998109171457074,4,16.395469488964157,0.2238004927262551,1
15,117.31070279488536,38.998168665651164,4,16.57526177833879,0.3595845787492635,1
16,117.31064156264344,38.99822541831893,4,16.471035663555725,-0.2084522295661273,1
17,117.31058130353063,38.998281019748866,4,16.16682156466835,-0.6084281977747494,1
18,117.31051712618441,38.998333973144945,4,16.17756379786541,0.0214844663941207,1
19,117.31045063554997,38.99838588291247,4,16.288958792727072,0.2227899897233243,1
20,117.31038496878476,38.99843573262857,4,15.865367123096503,-0.8471833392611394,1
21,117.3103165196197,38.998487957235085,4,16.578473338017645,1.426212429842284,1
22,117.31024701309352,38.99853625505208,4,16.11460794897302,-0.9277307780892485,1
23,117.31017524501559,38.99858328115507,4,16.22432735530158,0.219438812657117,1
24,117.31010209334134,38.99862720309937,4,15.976715928119791,-0.4952228543635755,1
25,117.31002739379642,38.99867416369979,4,16.605708190608194,1.2579845249768056,1
26,117.30995092056224,38.9987150242922,4,16.039452588111008,-1.1325112049943726,1
27,117.30987523543041,38.99875811858133,4,16.215933769162117,0.3529623621022182,1
28,117.30979368386905,38.9987976978479,4,16.617389438278565,0.8029113382328958,1
29,117.30971311976053,38.998838755465044,4,16.65086747605717,0.0669560755572078,1
30,117.30963412175186,38.998872925464426,4,15.625651658744005,-2.050431634626328,1
31,117.30955008139881,38.99891052959862,4,16.76030675057521,2.2693101836624123,1
32,117.30946722693265,38.99894041824694,4,15.787378935487126,-1.945855630176169,1
33,117.3093844683879,38.99897248282985,4,15.982295606308712,0.3898333416431718,1
34,117.30929627048442,38.9990044027395,4,16.81524531926423,1.6658994259110322,1
35,117.30920840861936,38.99903260981311,4,16.429976213576385,-0.7705382113756869,1
36,117.30912453477002,38.99905806259219,4,15.56201636606511,-1.7359196950225488,1
37,117.30903327281679,38.999084913238114,4,16.86542670552738,2.6068206789245387,1
38,117.30894339762227,38.99910924352349,4,16.448689607717945,-0.8334741956188694,1
39,117.30885228298796,38.999130669598294,4,16.452593585746257,0.0078079560566238,1
40,117.30876311431281,38.999150374420324,4,16.02207599526021,-0.8610351809720953,1
41,117.30867277657892,38.999170284463204,4,16.22890434575062,0.4136567009808232,1
42,117.30857927820863,38.99918441181743,4,16.462038186968076,0.4662676824349106,1
43,117.30848669935125,38.999199023583515,4,16.327162422497068,-0.2697515289420167,1
44,117.30839840543621,38.99921468962221,4,15.65261029448062,-1.349104256032895,1
45,117.30830157446056,38.99922110544337,4,16.79613497914853,2.2870493693358185,1
46,117.30820914293987,38.99923172920962,4,16.14882040980988,-1.2946291386773012,1
47,117.30811662400832,38.99923772721743,4,16.04570239792733,-0.2062360237651006,1
48,117.30802005657469,38.99924399597371,4,16.747992224992576,1.4045796541304938,1
49,117.30792744838561,38.99924949149685,4,16.05217832614588,-1.3916277976933884,1
50,117.30783379464941,38.99925168499344,4,16.19363725572736,0.2829178591629571,1
51,117.30774019311438,38.999251072169855,4,16.177840148347407,-0.031594214759906,1
52,117.3076452609101,38.9992475864316,4,16.42555027689281,0.4954202570908066,1
53,117.30755342944319,38.999244174697765,4,15.889469756563388,-1.0721610406588447,1
54,117.30745688438081,38.99923892810726,4,16.72674657361443,1.674553634102086,1
55,117.30736561169059,38.99923166802956,4,15.8571838525076,-1.7391254422136626,1
56,117.30727160915728,38.99922331957745,4,16.352316509062966,0.9902653131107328,1
57,117.30717788774763,38.999215077632925,4,16.30136629388684,-0.1019004303522522,1
58,117.30708347481959,38.999199587818964,4,16.6771590306162,0.751585473458718,1
59,117.30699299496243,38.99918370445663,4,16.031735537447222,-1.2908469863379537,1
60,117.30690058255834,38.99916940345602,4,16.285336177671667,0.5072012804488892,1
61,117.3068114074976,38.99915159030114,4,15.913225522699081,-0.7442213099451713,1
62,117.30672037617875,38.999130456334946,4,16.420095087679687,1.0137391299612126,1
63,117.30662894528324,38.99910754766762,4,16.603107667219096,0.3660251590788164,1
64,117.30653911353384,38.999085818603675,4,16.26040218375275,-0.6854109669326931,1
65,117.3064515039765,38.99906122012174,4,16.0995973947944,-0.3216095779166963,1
66,117.30636347130891,38.999032197733584,4,16.527220746592477,0.8552467035961513,1
67,117.30628056475356,38.99900534289187,4,15.523682030275783,-2.0070774326333876,1
68,117.30619377980221,38.99897480615034,4,16.4649509501929,1.8825378398342352,1
69,117.30610795302738,38.99893995825177,4,16.736056238315694,0.5422105762455871,1
70,117.30602326312561,38.99890863478534,4,16.210209468671536,-1.0516935392883155,1
71,117.30594285148419,38.99887242344778,4,16.06230834619707,-0.2958022449489306,1
72,117.30586150081905,38.99883666240872,4,16.15340341075792,0.1821901291217003,1
73,117.3057818138233,38.99879789114145,4,16.248876914715655,0.1909470079154687,1
74,117.30569995867995,38.998756637522696,4,16.8615875719047,1.2254213143780888,1
75,117.30562505632564,38.9987150099986,4,15.915071855507023,-1.893031432795354,1
76,117.30554605544886,38.99867303421605,4,16.540001559274476,1.249859407534906,1
77,117.30547220148122,38.99862710593429,4,16.347930427119117,-0.384142264310718,1
78,117.30539904898603,38.998581774616596,4,16.170353375608393,-0.355154103021448,1
79,117.30532512596326,38.99853728352678,4,16.15961342340792,-0.0214799044009482,1
80,117.3052582491872,38.998487091949386,4,16.06834402604355,-0.1825387947287354,1
81,117.30518785400528,38.99843764927504,4,16.39904682793231,0.6614056037775171,1
82,117.30512002979877,38.99838668421844,4,16.30563990574102,-0.1868138443825771,1
83,117.30505482041897,38.99833339922444,4,16.35372914779046,0.0961784840988784,1
84,117.30499321544426,38.9982789033227,4,16.13212671693167,-0.4432048617175823,1
85,117.3049298762563,38.99822543606763,4,16.162478425341952,0.0607034168205658,1
86,117.30487118601033,38.99816626961426,4,16.614067633063623,0.9031784154433424,1
87,117.30481413116028,38.99810793655643,4,16.295092005894862,-0.6379512543375228,1
88,117.30475666567574,38.99805346499418,4,15.66498050325979,-1.260223005270145,1
89,117.30470334293382,38.997992905976034,4,16.319123257689668,1.3082855088597576,1
90,117.30464732683993,38.997930926435444,4,16.84398271269265,1.0497189100059643,1
91,117.30459773560641,38.99786954384739,4,16.11860594478637,-1.4507535358125594,1
92,117.30455136285663,38.99780631506626,4,16.185221335093416,0.1332307806140918,1
93,117.30450289458716,38.99774350630399,4,16.287421571917548,0.2044004736482634,1
94,117.30446168978357,38.997676936506025,4,16.42830777833784,0.2817724128405814,1
95,117.30441850065922,38.99761407414462,4,15.84800491101665,-1.1606057346423775,1
96,117.30437744656948,38.997546455781844,4,16.627628323479705,1.5592468249261096,1
97,117.30433819593918,38.99747904902916,4,16.45414017501659,-0.3469762969262291,1
98,117.30430627223487,38.99741333042497,4,15.621972437851833,-1.6643354743295156,1
99,117.30427028131054,38.99734386704996,4,16.65334845093563,2.0627520261675976,1
100,117.3042379825081,38.99727545987338,4,16.20494920044048,-0.8967985009903003,1
101,117.30420873877561,38.99720462746618,4,16.543429707484623,0.6769610140882847,1
102,117.30418203026842,38.99713501569841,4,16.154539115951017,-0.7777811830672121,1
103,117.30415914847902,38.99706439750937,4,16.195069071924554,0.0810599119470723,1
104,117.30413628244098,38.9969926147518,4,16.445684634204845,0.5012311245605829,1
105,117.3041148653981,38.99692174102727,4,16.19043494625698,-0.5104993758957335,1
106,117.3040969025158,38.99684973498996,4,16.31159772356099,0.2423255546080227,1
107,117.30408426383094,38.99677708839681,4,16.30287501352793,-0.0174454200661174,1
108,117.30406913694678,38.996703569819125,4,16.557507441314065,0.509264855572269,1
109,117.3040590266393,38.99663290253271,4,15.812538705408816,-1.4899374718104994,1
110,117.3040508790815,38.996560163399685,4,16.237623540500756,0.850169670183881,1
111,117.30404811335558,38.99648664951104,4,16.3557298817658,0.2362126825300876,1
112,117.30404193220735,38.99641293755292,4,16.427567077958802,0.1436743923860035,1
113,117.30404217577507,38.99633936262173,4,16.36237230833541,-0.1303895392467851,1
114,117.3040445216446,38.99626729674359,4,16.03184802047927,-0.6610485757122788,1
115,117.30404534554664,38.99619416585857,4,16.264190206826154,0.4646843726937675,1
116,117.30405319596031,38.99611935736833,4,16.69188884618361,0.8553972787149107,1
117,117.30406149908293,38.99604951264538,4,15.598912841465868,-2.185952009435482,1
118,117.30407070200013,38.99597492041323,4,16.664641029348857,2.1314563757659784,1
119,117.30408476887894,38.99590429619543,4,15.893179009098098,-1.5429240405015179,1
120,117.30409834302723,38.995830414301395,4,16.597243442068176,1.4081288659401565,1
121,117.30411755395855,38.99575595856161,4,16.887840270745002,0.5811936573536514,1
122,117.30413856383333,38.99568820463913,4,15.49918687719608,-2.777306787097846,1
123,117.30415971258184,38.99561494452846,4,16.697328881706103,2.3962840090200466,1
124,117.30418338694207,38.99554571959573,4,15.929442198867307,-1.535773365677592,1
125,117.30421233899385,38.995473734335036,4,16.772663770498923,1.686443143263233,1
126,117.30423806880458,38.995406400721386,4,15.620730132807855,-2.303867275382135,1
127,117.30427122058695,38.99533643839753,4,16.580480760846893,1.9195012560780746,1
128,117.30430376534186,38.99526594207298,4,16.65624769349967,0.1515338653055522,1
129,117.30434008847757,38.995201446642284,4,15.656955271854157,-1.9985848432910238,1
130,117.30437672008868,38.99513403977608,4,16.27284396969164,1.231777395674964,1
131,117.30441791831386,38.995070187222815,4,15.885519029665375,-0.7746498800525288,1
132,117.30446109613818,38.9950041988061,4,16.463757976405184,1.156477893479618,1
133,117.30450322303675,38.994936456813306,4,16.73246190922358,0.5374078656367942,1
134,117.30454875503892,38.99487422989968,4,15.91986449592566,-1.6251948265958411,1
135,117.3046006029728,38.994811398328444,4,16.59988254279846,1.3600360937456024,1
136,117.3046478885197,38.994749453651416,4,16.01784586674907,-1.1640733520987823,1
137,117.30470394118863,38.994688761306804,4,16.614492534388756,1.193293335279371,1
138,117.30475467462064,38.99462735731724,4,16.228662726581966,-0.7716596156135793,1
139,117.3048118461759,38.994569496523205,4,16.22418186571325,-0.0089617217374354,1
140,117.30486828392357,38.99450909807265,4,16.60047768544483,0.7525916394631622,1
141,117.30492681313717,38.9944577367336,4,15.258055016695673,-2.684845337498313,1
142,117.3049896556096,38.994401401820156,4,16.58128688356837,2.646463733745396,1
143,117.30505703580188,38.99434877934386,4,16.51021890258335,-0.1421359619700411,1
144,117.30512062812909,38.9942917093249,4,16.78972255744559,0.5590073097244783,1
145,117.30518633882318,38.99424088293832,4,16.02374425847523,-1.5319565979407201,1
146,117.3052543282962,38.99419111534723,4,16.142955767722892,0.2384230184953253,1
147,117.30532501466358,38.9941402271812,4,16.653728051936685,1.0215445684275863,1
148,117.30539657191744,38.99409554303783,4,15.865777285016613,-1.5759015338401454,1
149,117.30547135069942,38.994049455806056,4,16.495630134008138,1.2597056979830512,1
150,117.30554380036631,38.99400435199346,4,16.04450818058226,-0.9022439068517585,1
151,117.30562247784815,38.99395839912294,4,17.010828369771463,1.9326403783784087,1
152,117.30569964383025,38.99391951691794,4,15.895431563452027,-2.230793612638873,1
153,117.30577910869295,38.99387658335002,4,16.727690421682944,1.6645177164618339,1
154,117.30586224873565,38.99383949993827,4,16.568578504595163,-0.3182238341755621,1
155,117.30594271909857,38.99380709076696,4,15.665373594605478,-1.8064098199793683,1
156,117.30601891403383,38.99376873917807,4,15.690431239901923,0.0501152905928883,1
157,117.30610572522237,38.99373860979783,4,16.432946837271153,1.4850311947384611,1
158,117.30618820044862,38.99370418799348,4,16.18074672526846,-0.5044002240053871,1
159,117.3062762495217,38.99367370173132,4,16.66069508456989,0.9598967186028631,1
160,117.30636365089515,38.993648683539966,4,16.09886781907964,-1.1236545309805024,1
161,117.30645358163632,38.9936216798073,4,16.66380737538843,1.12987911261758,1
162,117.30654112565347,38.993595542909574,4,16.20955693679737,-0.9085008771821208,1
163,117.30662889748734,38.9935697498254,4,16.219127701268345,0.019141528941951,1
164,117.30671734142621,38.99354433455903,4,16.29851868577754,0.158781969018392,1
165,117.3068073734014,38.99352733400778,4,16.014281275402148,-0.5684748207507866,1
166,117.30689907990566,38.993508273406555,4,16.408025148562174,0.7874877463200534,1
167,117.30699299402389,38.99349258768449,4,16.603197320812452,0.390344344500555,1
168,117.3070810637018,38.99347582770929,4,15.672100340617032,-1.8621939603908402,1
169,117.30717377582786,38.99346464629588,4,16.21663971981282,1.0890787583915795,1
170,117.30726697721133,38.99345442248264,4,16.269086881017795,0.1048943224099474,1
171,117.3073659088025,38.99344902604654,4,17.141929289264304,1.7456848164930179,1
172,117.30745845782754,38.993436841343346,4,16.224558544830536,-1.834741488867536,1
173,117.30754904728892,38.99343237838029,4,15.689397809097464,-1.0703214714661442,1
174,117.30764195918341,38.993430350178706,4,16.06572841549263,0.7526612127903292,1
175,117.30773599234051,38.99342552607126,4,16.288570330124127,0.4456838292629968,1
176,117.30783124504762,38.99342499342555,4,16.46442172792861,0.3517027956089649,1
177,117.30792714345517,38.9934290360787,4,16.59996534323844,0.2710872306196634,1
178,117.30802220409035,38.993435605784555,4,16.495625396445966,-0.2086798935849501,1
179,117.3081122736385,38.99343584845418,4,15.568201476097856,-1.8548478406962197,1
180,117.30820829073164,38.99344648664032,4,16.763892053342182,2.391381154488652,1
181,117.30830170357665,38.993455600343616,4,16.272691930286875,-0.9824002461106147,1
182,117.30839453823214,38.99346667879031,4,16.234079296075823,-0.0772252684221044,1
183,117.30848673243685,38.993480073513666,4,16.21136956324663,-0.0454194656583837,1
184,117.30857861785239,38.99349293535967,4,16.137479654864784,-0.1477798167636948,1
185,117.30866923960974,38.99350964851078,4,16.09848928544785,-0.0779807388338654,1
186,117.30876137339266,38.99353076370415,4,16.602784789743037,1.008591008590372,1
187,117.30885527794993,38.99354969854387,4,16.768287880806323,0.331006182126572,1
188,117.30894455259893,38.993575517991005,4,16.464398795729004,-0.6077781701546385,1
189,117.30903539708511,38.993593050084584,4,16.1788535412253,-0.571090509007405,1
190,117.30912589402104,38.993620005240594,4,16.75126931798768,1.1448315535247602,1
191,117.30921358210696,38.9936479512535,4,16.381172011589392,-0.7401946127965786,1
192,117.30929914699169,38.993675102166,4,15.974552944843088,-0.8132381334926073,1
193,117.30938445195108,38.99370787815547,4,16.447826768188218,0.9465476466902594,1
194,117.3094704881227,38.99374218077028,4,16.71341950966288,0.5311854829493257,1
195,117.30955162866255,38.993771897420565,4,15.503775480761119,-2.4192880578035236,1
196,117.30963805798686,38.99380673563921,4,16.828404381128948,2.6492578007356578,1
197,117.30971700349102,38.99384783520962,4,16.423639576256708,-0.8095296097444802,1
198,117.30979271851635,38.993882982053975,4,15.24342209361053,-2.360434965292356,1
199,117.30987179614054,38.99392751699856,4,16.87924523964352,3.271646292065981,1
200,117.30995157348309,38.9939626086493,4,15.844263588170476,-2.069963302946089,1
201,117.31002955535213,38.99400966851891,4,17.064730000260866,2.4409328241807806,1
202,117.31010441008372,38.99405162021072,4,15.951135224198984,-2.2271895521237646,1
203,117.31017888635108,38.994098742974415,4,16.59911439279187,1.2959583371857697,1
204,117.31025148971848,38.99414438122625,4,16.139713806377106,-0.9188011728295251,1
205,117.31032016026317,38.994193445415455,4,16.122581332090785,-0.0342649485726412,1
206,117.31038824082893,38.99424232406323,4,16.019624248632077,-0.2059141669174167,1
207,117.31045349060885,38.99429836955794,4,16.80901945748136,1.5787904176985634,1
208,117.31051843656121,38.99434791841367,4,15.730006407742088,-2.1580260994785405,1
209,117.31058204162548,38.99440071744734,4,16.08524885242839,0.7104848893726015,1
210,117.3106450494783,38.9944581189595,4,16.77976688531996,1.389036065783145,1
211,117.31070647613433,38.994513145436095,4,16.201120055991677,-1.1572936586565703,1
212,117.31076564934055,38.99457233980961,4,16.670388992118102,0.9385378722528515,1
213,117.31081935563884,38.9946334686792,4,16.46140817773416,-0.417961628767884,1
214,117.3108724266318,38.994686852515805,4,15.002912501564403,-2.9169913523395152,1
215,117.31092663755459,38.994751138226746,4,17.09343098054499,4.181036957961176,1
216,117.31097516540959,38.994814940659545,4,16.4827456357457,-1.2213706895985794,1
217,117.31102201714873,38.994876184416974,4,15.845531699428157,-1.274427872635087,1
218,117.31107003377744,38.99494055666638,4,16.54745717982498,1.4038509607936476,1
219,117.3111173527247,38.995004520690145,4,16.408537116849516,-0.2778401259509309,1
220,117.31115565062254,38.99506883830879,4,15.76102462727096,-1.2950249791571125,1
221,117.31120096817067,38.995134985951715,4,16.6659118241714,1.809774393800879,1
222,117.31123875309328,38.9951992853774,4,15.720307445852434,-1.8912087566379299,1
223,117.3112696270302,38.995271397604796,4,16.901543367831266,2.362471843957664,1
224,117.31130308374358,38.99533694976444,4,15.683159433007164,-2.436767869648204,1
225,117.31133473548338,38.99540540434353,4,16.17673520986079,0.9871515537072533,1
226,117.31136605591912,38.99547861746408,4,17.1582091173823,1.962947815043016,1
227,117.3113945001464,38.995544488685006,4,15.452054064801931,-3.412310105160735,1
228,117.31141618470284,38.99561509662707,4,16.1435873053245,1.3830664810451339,1
229,117.31144195702734,38.99569078210898,4,17.41114663227816,2.5351186539073254,1
230,117.31145915377394,38.995760428130104,4,15.77118306065679,-3.279927143242741,1
231,117.31147374611436,38.99582933420295,4,15.530180012167309,-0.4820060969789637,1
232,117.31148967201258,38.995902799041694,4,16.56809527897219,2.075830533609764,1
233,117.3115054544821,38.995973374164684,4,15.930476765503112,-1.2752370269381572,1
234,117.31151197022366,38.99605092976182,4,17.28430538083252,2.7076572306588176,1
235,117.31152326968925,38.9961246675796,4,16.514428716604037,-1.5397533284569676,1
236,117.31152712961328,38.9961968146074,4,16.058630934366207,-0.911595564475661,1
237,117.31153334466387,38.996265973985835,4,15.417810773648247,-1.281640321435919,1
238,117.3115319537868,38.99634108951472,4,16.706661109504807,2.577700671713121,1
239,117.31152981489475,38.99641406550475,4,16.23332965844372,-0.9466629021221777,1
240,117.31152891827868,38.996483594399045,4,15.463297152721948,-1.5400650114435415,1
241,117.31152215718735,38.996558677107984,4,16.738473567127805,2.5503528288117145,1
