,LongitudeGPS,LatitudeGPS,TrackID,Velocity,Acceleration,Type
0,117.31136208439538,38.99719945078764,4,0.0,0.0,1
1,117.31134281194811,38.997268911513686,4,15.802415888258013,31.604831776516026,1
2,117.31130287496339,38.99734501215449,4,18.27750747177962,4.9501831670432175,1
3,117.31127194541254,38.99741274288575,4,15.983103740245568,-4.5888074630681075,1
4,117.31123251859799,38.99748465289812,4,17.383364407272047,2.8005213340529593,1
5,117.31119315728566,38.997548781728575,4,15.80109120572977,-3.164546403084554,1
6,117.31115355543352,38.9976087774049,4,14.995630885216864,-1.610920641025814,1
7,117.31111246659268,38.997675777212685,4,16.505906944239516,3.0205521180453054,1
8,117.3110723298258,38.997740931127474,4,16.064560650196373,-0.8826925880862859,1
9,117.3110262363428,38.99780684249191,4,16.683032291445706,1.2369432824986646,1
10,117.31097410235634,38.997869615950414,4,16.615559491693322,-0.1349455995047677,1
11,117.31093137793793,38.99793013133861,4,15.35073910451704,-2.529640774352565,1
12,117.31087109004166,38.997986283004,4,16.263819452076827,1.826160695119576,1
13,117.3108166428846,38.99805272294048,4,17.51775505847837,2.5078712128030887,1
14,117.31075625410263,38.998108643293186,4,16.23554763693929,-2.5644148430781613,1
15,117.31070645963781,38.998159591233225,4,14.228212372294092,-4.014670529290399,1
16,117.31064264968116,38.99822279128688,4,17.86540329532195,7.274381846055718,1
17,117.31058388161442,38.998278697120924,4,16.05438968937453,-3.6220272118948387,1
18,117.3105170962109,38.99833519009493,4,17.060945015744746,2.01311065274043,1
19,117.31045679538707,38.99839313545405,4,16.57343727691508,-0.9750154776593334,1
20,117.31038616042989,38.99843490671859,4,15.34053013673686,-2.4658142803564402,1
21,117.31031775420583,38.998485166982114,4,16.270025605017135,1.8589909365605521,1
22,117.31024588573318,38.99853816631004,4,17.123352475297555,1.7066537405608386,1
23,117.31016930259634,38.99858148359724,4,16.370549913324304,-1.505605123946502,1
24,117.31010972386918,38.99862065116526,4,13.487169536345071,-5.766760753958465,1
25,117.3100301518185,38.99867367671955,4,18.11614780516841,9.257956537646677,1
26,117.30995406051602,38.998717855471135,4,16.415816180649156,-3.4006632490385087,1
27,117.30987444497178,38.998757054863155,4,16.289179389437948,-0.2532735824224162,1
28,117.30979371276888,38.998805277919594,4,17.598324580955822,2.618290383035749,1
29,117.30971876595056,38.998837201332066,4,14.771194870464944,-5.654259420981756,1
30,117.30962529732138,38.998875811235884,4,18.29457088832625,7.0467520357226086,1
31,117.30955164058906,38.99891215589549,4,15.079421030456933,-6.430299715738631,1
32,117.30946889531558,38.99894182771596,4,15.749999424870223,1.3411567888265807,1
33,117.30938137560463,38.998974047288364,4,16.737488794362495,1.974978738984543,1
34,117.30930156814154,38.99900499380331,4,15.414891448229971,-2.645194692265047,1
35,117.30921288131626,38.999039799787845,4,17.171483316453582,3.513183736447221,1
36,117.3091192124322,38.99905937901468,4,16.764290004205847,-0.8143866244954694,1
37,117.30903979886358,38.99908381509018,4,14.761859656929465,-4.0048606945527645,1
38,117.30894059260315,38.99910567253192,4,17.82168803115029,6.119656748441653,1
39,117.30885741996883,38.99912656060802,4,15.106793395796537,-5.429789270707509,1
40,117.30877148038628,38.999159550804265,4,16.566244771446588,2.9189027513001022,1
41,117.30866786208693,38.99917176590267,4,18.113357529782423,3.0942255166716706,1
42,117.30858182222804,38.999181793840584,4,15.036683216795579,-6.153348625973688,1
43,117.3084858446493,38.99919635317785,4,16.900983972595554,3.728601511599951,1
44,117.30839880891806,38.99921455956718,4,15.57788596295235,-2.6461960192864105,1
45,117.3083048781662,38.99922946084886,4,16.568953658789304,1.9821353916739106,1
46,117.30820529767011,38.999236838409324,4,17.288648687167424,1.4393900567562383,1
47,117.30811989968481,38.99923608445852,4,14.760392171775562,-5.056513030783723,1
48,117.30802354411823,38.99923857001932,4,16.662423270795554,3.8040621980399827,1
49,117.30793592605082,38.99924547958977,4,15.220901076801086,-2.883044387988935,1
50,117.30782697273241,38.99924221174512,4,18.844553711617614,7.247305269633056,1
51,117.3077380871645,38.99925194386976,4,15.513913678946547,-6.661280065342133,1
52,117.30765298194972,38.999246260865924,4,14.763034647765476,-1.5017580623621427,1
53,117.30755165764756,38.99924833569944,4,17.518080171250457,5.510091046969961,1
54,117.30745846479499,38.99924039932221,4,16.203048984398816,-2.630062373703282,1
55,117.30735708254724,38.99923024834281,4,17.66684403257758,2.9275900963575268,1
56,117.30727478877893,38.999221882875226,4,14.344092334067875,-6.645503397019407,1
57,117.30717960143359,38.99921652099625,4,16.494509249545132,4.300833830954513,1
58,117.3070852420091,38.99920429476443,4,16.53337023087919,0.0777219626681145,1
59,117.30699765017013,38.99918262068757,4,15.887447621408999,-1.2918452189403808,1
60,117.30690382985091,38.999175018364944,4,16.302997186394716,0.8310991299714345,1
61,117.3068121509897,38.99915281678988,4,16.596433400601537,0.586872428413642,1
62,117.30672084226232,38.999126539886916,4,16.828240793872745,0.4636147865424149,1
63,117.30663148764165,38.9991120967407,4,15.773787794342471,-2.1089059990605463,1
64,117.30653662501147,38.999086140602756,4,17.38173967397582,3.215903759266695,1
65,117.30645277149686,38.99906052401649,4,15.572027589315217,-3.619424169321203,1
66,117.30635997321855,38.9990357599985,4,16.957681503382567,2.771307828134699,1
67,117.30627575784331,38.999010749034916,4,15.581674852008469,-2.752013302748196,1
68,117.30619551414689,38.99897169959379,4,16.363227369958445,1.5631050358999516,1
69,117.30610530812461,38.998949333065916,4,16.36473692313824,0.0030191063595879,1
70,117.30602411038471,38.99891435257333,4,16.0455165980619,-0.638440650152674,1
71,117.30594483676508,38.99887489497681,4,16.270161314602706,0.44928943308161,1
72,117.30586503433449,38.998838210542054,4,16.024606919611966,-0.4911087899814817,1
73,117.30578647642767,38.99879731195999,4,16.342307877166967,0.6354019151100019,1
74,117.30570086319801,38.998748888263506,4,18.300641718465855,3.916667682597776,1
75,117.30562400749957,38.99871970983886,4,14.783412138807876,-7.034459159315958,1
76,117.30555245921263,38.9986724278142,4,16.232096340116083,2.897368402616415,1
77,117.30546671876428,38.998633117531156,4,17.205277230978,1.9463617817238372,1
78,117.30539604443209,38.998584881428535,4,16.256555054187395,-1.8974443535812142,1
79,117.30532844611018,38.998534871358714,4,16.13041862156225,-0.2522728652502906,1
80,117.30525899763643,38.99848176141589,4,16.839659489541962,1.4184817359594248,1
81,117.305192536131,38.99843564003908,4,15.399674615087305,-2.879969748909314,1
82,117.3051202390251,38.99838211254363,4,17.257989034308444,3.716628838442279,1
83,117.30505245925144,38.998333249342934,4,15.978634908108278,-2.558708252400333,1
84,117.30499037054054,38.998270438612806,4,17.61455985840787,3.2718499005991823,1
85,117.30493005390154,38.998227006906866,4,14.211515134171202,-6.806089448473333,1
86,117.30487123172718,38.99817141870489,4,16.005691298174096,3.5883523280057865,1
87,117.30480933629016,38.998117531398556,4,16.064100166532075,0.1168177367159586,1
88,117.30475403660292,38.998046490653095,4,18.464811476444964,4.801422619825779,1
89,117.30469515077459,38.99799245286639,4,15.748030162086362,-5.433562628717205,1
90,117.30465319749656,38.99792665873687,4,16.330046050973685,1.164031777774646,1
91,117.30460428027685,38.99786722778208,4,15.689642528206635,-1.2808070455341003,1
92,117.30455581113605,38.997809412882795,4,15.345701011082168,-0.6878830342489337,1
93,117.3045039408454,38.99774680964968,4,16.55905109751635,2.4267001728683617,1
94,117.30446123060123,38.99768071750214,4,16.447768100762513,-0.222565993507672,1
95,117.30441000552378,38.99761819902937,4,16.483049318344882,0.0705624351647387,1
96,117.3043708383874,38.99754309397388,4,18.02227940054343,3.078460164397093,1
97,117.30434659454069,38.99748092359947,4,14.447065167138144,-7.15042846681057,1
98,117.30430475772513,38.99741340810928,4,16.665197572238505,4.436264810200722,1
99,117.30427073795437,38.9973400716924,4,17.336807539521526,1.3432199345660436,1
100,117.30424418279323,38.99727209746422,4,15.798171413866756,-3.077272251309541,1
101,117.30421013006851,38.99720526159872,4,15.986454915947743,0.3765670041619735,1
102,117.30418730544278,38.9971313627044,4,16.90120563263289,1.8295014333702966,1
103,117.30415445967644,38.997061090884216,4,16.626904995147754,-0.5486012749702738,1
104,117.3041344930771,38.997001732597575,4,13.644306233872696,-5.965197522550117,1
105,117.30411906069189,38.99691920774178,4,18.545502303093294,9.802392138441196,1
106,117.30409844810104,38.996853214986515,4,15.10234155985602,-6.886321486474547,1
107,117.3040804170477,38.99677485779193,4,17.702323230378315,5.19996334104459,1
108,117.30406877355396,38.996710133911,4,14.533933507337194,-6.336779446082243,1
109,117.30405569354687,38.996631272257915,4,17.68313839705213,6.298409779429871,1
110,117.30404648879949,38.99656335269086,4,15.188175399002906,-4.989925996098446,1
111,117.30404470331905,38.99649030457671,4,16.24809024821142,2.119829698417025,1
112,117.3040450535906,38.99641626596786,4,16.46554665665968,0.4349128168965208,1
113,117.30404375988044,38.99633984040038,4,16.99774153092772,1.0643897485360796,1
114,117.30404080430029,38.9962753466688,4,14.35184573115093,-5.2917915995535765,1
115,117.30404514762937,38.99619489786016,4,17.906741160457912,7.109790858613962,1
116,117.30405187855062,38.996126043579935,4,15.356622880761218,-5.100236559393387,1
117,117.30405478497032,38.99604856495615,4,17.237780950152786,3.7623161387831345,1
118,117.30406834077888,38.9959747317187,4,16.586082690723458,-1.303396518858655,1
119,117.30408155567746,38.99590872797345,4,14.85520512890999,-3.4617551236269364,1
120,117.30410724861426,38.995830880488555,4,17.8729579789843,6.035505700148619,1
121,117.30411229105857,38.99576418746749,4,14.857435211731973,-6.031045534504653,1
122,117.30414113048498,38.995685107517474,4,18.279332380369006,6.8437943372740655,1
123,117.30416617322959,38.99561313999722,4,16.579808426323787,-3.399047908090438,1
124,117.30418198900286,38.99554357792116,4,15.709563241509587,-1.7404903696284002,1
125,117.30421114435701,38.99548365712677,4,14.246756611132687,-2.9256132607537992,1
126,117.30423150890381,38.9953974838124,4,19.48462807171492,10.475742921164464,1
127,117.30428036316403,38.99533354345643,4,16.537856281004387,-5.8935435814210635,1
128,117.30430416724793,38.99526146948794,4,16.548143282410265,0.020574002811756,1
129,117.30433584672805,38.99520142990624,4,14.431296873144671,-4.233692818531189,1
130,117.30437478324087,38.995130174842274,4,17.216246600147628,5.569899454005913,1
131,117.30441612306602,38.995066686787894,4,15.82413622574821,-2.784220748798834,1
132,117.30445870883165,38.99500256442514,4,16.04775676173879,0.447241071981157,1
133,117.30450166290437,38.99494227966303,4,15.325131612144139,-1.4452502991893006,1
134,117.30454700239797,38.99488054776917,4,15.807740801831269,0.9652183793742601,1
135,117.3045968632581,38.994810713364764,4,17.761363957642438,3.9072463116223375,1
136,117.30464857390457,38.99474832566025,4,16.504019034017265,-2.514689847250345,1
137,117.30470004163283,38.99468837821071,4,16.027151681224453,-0.9537347055856245,1
138,117.30475494417432,38.994630656579716,4,15.9634389206138,-0.1274255212213049,1
139,117.30481168976843,38.994570817162,4,16.531553231187207,1.1362286211468131,1
140,117.30486739831976,38.99451124154175,4,16.378353816002537,-0.3063988303693392,1
141,117.30493327120676,38.99444752306107,4,18.177784521156315,3.5988614103075562,1
142,117.30498460130624,38.99439801724503,4,14.139460355391114,-8.076648331530404,1
143,117.3050586013853,38.99434068910275,4,18.059249540828564,7.8395783708749,1
144,117.30512728098618,38.994290308844676,4,16.32320309740241,-3.472092886852309,1
145,117.30519715410304,38.9942352059404,4,17.205377745134616,1.764349295464413,1
146,117.30526136972472,38.994193275123735,4,14.49651091745863,-5.41773365535197,1
147,117.30532535059696,38.9941467373352,4,15.146198633125943,1.2993754313346244,1
148,117.30540053280602,38.99409402576777,4,17.500902078971556,4.709406891691227,1
149,117.30547982550944,38.99405186272801,4,16.60588103023623,-1.7900420974706535,1
150,117.30554769885218,38.99400740896513,4,15.341522914051414,-2.528716232369632,1
151,117.30561540194437,38.993958250588705,4,16.01419200637593,1.3453381846490302,1
152,117.30569847851314,38.99392394875283,4,16.259818903569734,0.4912537943876103,1
153,117.30578008010734,38.99388805281431,4,16.206780926913854,-0.106075953311759,1
154,117.30585349850466,38.99384046568153,4,16.52370003505386,0.6338382162800116,1
155,117.3059458648185,38.99380028269912,4,18.295864837719172,3.544329605330624,1
156,117.30602115975479,38.9937667667008,4,14.997631459349055,-6.596466756740234,1
157,117.30610854888742,38.9937433380687,4,15.978121330325786,1.9609797419534623,1
158,117.3061883226124,38.993697049573974,4,17.207269858990596,2.45829705732962,1
159,117.3062799428402,38.99367604755047,4,16.510489656496485,-1.3935604049882215,1
160,117.30637398710157,38.99365449857718,4,16.94677125532614,0.8725631976593107,1
161,117.30645388445122,38.99362552764258,4,15.238837745431486,-3.41586701978931,1
162,117.30654546866963,38.99359103667008,4,17.590354429889466,4.7030333689159605,1
163,117.30662422789077,38.99356418166947,4,14.865590270410292,-5.449528318958347,1
164,117.30671664665871,38.9935489599562,4,16.32887568891209,2.9265708370035917,1
165,117.3068019152072,38.99353153483749,4,15.239196571380516,-2.1793582350631446,1
166,117.30689330164078,38.99351273190644,4,16.33982730484462,2.201261466928205,1
167,117.3069844137525,38.9934977734371,4,16.095811098558585,-0.4880324125720676,1
168,117.30708673953738,38.993484077291555,4,17.94688538632975,3.7021485755423313,1
169,117.30718465510107,38.99346649165616,4,17.370232892183967,-1.1533049882915662,1
170,117.30727211799811,38.99345591309334,4,15.29951063942619,-4.141444505515555,1
171,117.30736545943834,38.993445053464484,4,16.313392752807406,2.0277642267624323,1
172,117.30745820401202,38.993438312155554,4,16.100423735176456,-0.4259380352619004,1
173,117.30755782994542,38.99343085589029,4,17.299539811391018,2.3982321524291237,1
174,117.3076532779715,38.9934219701304,4,16.61568275296781,-1.3677141168464146,1
175,117.30774128715589,38.993428636003934,4,15.284046834901241,-2.663271836133138,1
176,117.30783257861518,38.99342948194588,4,15.780432595742667,0.992771521682851,1
177,117.30792461328446,38.9934293188886,4,15.907812860273207,0.2547605290610804,1
178,117.3080243839549,38.993436367567696,4,17.316001575646464,2.8163774307465133,1
179,117.30811932165714,38.99343555691542,4,16.410536253981633,-1.8109306433296624,1
180,117.30820875349114,38.99344706599617,4,15.668348092036863,-1.4843763238895384,1
181,117.30830804598612,38.99345376062703,4,17.226704529240674,3.1167128744076216,1
182,117.30840160651307,38.993471083104765,4,16.62401905287723,-1.2053709527268879,1
183,117.30849153544803,38.993480709135376,4,15.690515841412271,-1.8670064229299186,1
184,117.30858256508623,38.99349287851785,4,15.965100924108633,0.5491701653927237,1
185,117.30866655510036,38.99350861022789,4,14.932892747600441,-2.0644163530163837,1
186,117.3087621273597,38.99352776701031,4,17.059722647648027,4.253659800095171,1
187,117.30885890464268,38.99354804185393,4,17.324523312380542,0.5296013294650308,1
188,117.30893755601109,38.99357380101861,4,14.752190687011636,-5.144665250737813,1
189,117.30903514331743,38.993591777135805,4,17.334752162308607,5.165122950593943,1
190,117.30912020662683,38.99362538401279,4,16.493315568865558,-1.6828731868860984,1
191,117.30920861005737,38.993642686356786,4,15.757126901076012,-1.4723773355790932,1
192,117.3092946957346,38.99367414823972,4,16.44243921258402,1.3706246230160168,1
193,117.30938347202817,38.993705148785715,4,16.822139437506934,0.7594004498458276,1
194,117.30947052771982,38.9937330646271,4,16.27751388725631,-1.0892511005012508,1
195,117.30954814845688,38.99377709437419,4,16.6095329532194,0.6640381319261834,1
196,117.309628538142,38.99380706396582,4,15.410713205224974,-2.3976394959888516,1
197,117.30970889335576,38.99384330206419,4,16.057716897335947,1.2940073842219455,1
198,117.30979219870848,38.99388241341757,4,16.822064233182587,1.5286946716932803,1
199,117.30987233447367,38.99392392057983,4,16.64504611137053,-0.3540362436241153,1
200,117.30994877666649,38.99395500139767,4,14.911372731058865,-3.467346760623329,1
201,117.31002601356214,38.99400564133272,4,17.46565815246688,5.108570842816029,1
202,117.31010831130338,38.99405614953337,4,18.1248577000377,1.3183990951416433,1
203,117.31017763379157,38.9940926830133,4,14.476803874932518,-7.296107650210367,1
204,117.31024832230524,38.99414237440956,4,16.474305107785604,3.995002465706172,1
205,117.31031610692536,38.99419093760522,4,15.934462685504084,-1.0796848445630403,1
206,117.31038219500793,38.99423868678773,4,15.596291375768988,-0.6763426194701907,1
207,117.3104507527074,38.994296892142266,4,17.54909774852562,3.9056127455132668,1
208,117.31052523953163,38.99435174252265,4,17.735534572098864,0.3728736471464842,1
209,117.31058534783574,38.99440208375653,4,15.273316913014325,-4.924435318169078,1
210,117.31063912459938,38.99445792792625,4,15.512310856657377,0.4779878872861048,1
211,117.31070113069507,38.994518674467805,4,17.244274536261848,3.4639273592089417,1
212,117.31076967393447,38.99457871020075,4,17.849770917317535,1.210992762111374,1
213,117.31081389206622,38.99463044750847,4,13.812915842979663,-8.073710148675744,1
214,117.31086749493429,38.99469372501395,4,16.848333972416302,6.070836258873278,1
215,117.31092549347188,38.99474997199721,4,16.030022355697767,-1.6366232334370707,1
216,117.31096984349873,38.99480784519144,4,14.980259927860045,-2.099524855675444,1
217,117.31101686230063,38.994873835882245,4,16.775584797019523,3.5906497383189553,1
218,117.31107084541553,38.99494228910699,4,17.85519278190441,2.1592159697697753,1
219,117.31111532149757,38.9950079892609,4,16.509924019508222,-2.6905375247923757,1
220,117.31116091228499,38.99507556630014,4,16.96904008183971,0.9182321246629783,1
221,117.31119550355703,38.995130167671114,4,13.534897140234383,-6.868285883210657,1
222,117.31123556993285,38.99519869108602,4,16.73862991030903,6.407465540149293,1
223,117.31126623676207,38.9952624356257,4,15.134664390988886,-3.207931038640286,1
224,117.31129792450791,38.995338371696704,4,17.753352177006796,5.23737557203582,1
225,117.31133148851247,38.99540283220246,4,15.464696342559046,-4.577311668895501,1
226,117.3113625348138,38.99547829351866,4,17.61886598030275,4.308339275487409,1
227,117.31138788395974,38.99554415530901,4,15.288253723790836,-4.661224513023829,1
228,117.31141340855642,38.99561971674726,4,17.37355930235314,4.170611157124608,1
229,117.3114312839301,38.995690193918534,4,15.975018383515824,-2.7970818376746323,1
230,117.31145329933621,38.99574965963185,4,13.761117986239377,-4.427800794552894,1
231,117.31147619781858,38.99583229742263,4,18.799140141130422,10.076044309782091,1
232,117.31149542297476,38.99589735678177,4,14.84520550040844,-7.907869281443965,1
233,117.3114988861633,38.995971933839954,4,16.595979087893078,3.501547174969275,1
234,117.31151140619342,38.99605302802047,4,18.163884501701734,3.1358108276173127,1
235,117.31151859455467,38.99612944343651,4,17.039369478831514,-2.24903004574044,1
236,117.3115264796819,38.99618804819052,4,13.104164985523159,-7.8704089866167095,1
237,117.31153603595784,38.99626212206313,4,16.55587411763676,6.903418264227199,1
238,117.31153505212005,38.99633774720972,4,16.8191248723399,0.5265015094062804,1
239,117.3115331749293,38.99641242172798,4,16.610024273513048,-0.4182011976537012,1
240,117.31152323375629,38.99649214773105,4,17.81331431271027,2.406580078394441,1
241,117.31152334533789,38.99655802770001,4,14.651049325673666,-6.324529974073204,1
