,LongitudeGPS,LatitudeGPS,TrackID,Velocity,Acceleration,Type
0,117.31087194430063,38.997991469157505,8,0.0,0.0,1
1,117.31081757156424,38.99805119751379,8,16.27113978748403,32.54227957496806,1
2,117.31076128451507,38.99810984504105,8,16.27114028312397,9.91279876e-07,1
3,117.31070311870312,38.99816737469625,8,16.271141733607312,2.9009666846e-06,1
4,117.31064311086543,38.99822375014242,8,16.27114411309296,4.7589712935e-06,1
5,117.31058129890286,38.99827893577163,8,16.27114739611326,6.5660406037e-06,1
6,117.31051772185616,38.99833289672745,8,16.271151545389756,8.2985529914e-06,1
7,117.3104524198813,38.99838559892698,8,16.27115652066554,9.9505515649e-06,1
8,117.31038543422414,38.99843700908239,8,16.271162276874723,1.15124183679e-05,1
9,117.31031680719437,38.9984870947219,8,16.271168762879036,1.29720086264e-05,1
10,117.3102465821387,38.99853582421038,8,16.27117594462967,1.43635012719e-05,1
11,117.31017480341366,38.99858316676922,8,16.271183747472367,1.56056853911e-05,1
12,117.31010151635739,38.99862909249585,8,16.27119211852688,1.67421090254e-05,1
13,117.31002676726114,38.9986735723826,8,16.271201004023087,1.77709924145e-05,1
14,117.30995060333994,38.99871657833501,8,16.27121032899624,1.86499463055e-05,1
15,117.30987307270283,38.99875808318961,8,16.271220034760347,1.94115282142e-05,1
16,117.30979422432243,38.99879806073103,8,16.271230054558792,2.00395968903e-05,1
17,117.30971410800403,38.99883648570862,8,16.27124031995513,2.05307926748e-05,1
18,117.30963277435411,38.99887333385233,8,16.271250747373887,2.08548375156e-05,1
19,117.30955027474835,38.998908581888074,8,16.27126129221135,2.10896749238e-05,1
20,117.3094666612992,38.998942207552446,8,16.271271862545426,2.1140668153e-05,1
21,117.30938198682296,38.99897418960675,8,16.271282394924956,2.10647590606e-05,1
22,117.30929630480635,38.999004507850444,8,16.271292824246846,2.08586437793e-05,1
23,117.3092096693728,38.999033143133865,8,16.271303081465994,2.05144382974e-05,1
24,117.30912213524822,38.999060077370366,8,16.271313088095326,2.00132586627e-05,1
25,117.30903375772635,38.999085293547694,8,16.271322793300097,1.94104095428e-05,1
26,117.30894459263394,38.999108775738776,8,16.27133213452752,1.86824548436e-05,1
27,117.3088546962954,38.99913050911176,8,16.271341032989994,1.77969249506e-05,1
28,117.30876412549722,38.99915047993938,8,16.27134945940032,1.68528206501e-05,1
29,117.3086729374521,38.99916867560763,8,16.271357334581577,1.57503625147e-05,1
30,117.3085811897628,38.99918508462374,8,16.27136462551038,1.45818576058e-05,1
31,117.30848894038573,38.999199696623414,8,16.27137127554668,1.33000726024e-05,1
32,117.30839624759433,38.99921250237742,8,16.27137724670321,1.19423130585e-05,1
33,117.30830316994222,38.999223493797345,8,16.271382501812422,1.05102184236e-05,1
34,117.30820976622627,38.999232663940795,8,16.271387001363514,8.9991021852e-06,1
35,117.30811609544936,38.99924000701569,8,16.271390728606434,7.4544858393e-06,1
36,117.30802221678317,38.99924551838401,8,16.27139365085355,5.8444942326e-06,1
37,117.30792818953071,38.999249194564634,8,16.27139574935039,4.1969936788e-06,1
38,117.30783407308893,38.999251033235616,8,16.271397012209057,2.5257173348e-06,1
39,117.30773992691108,38.999251033235616,8,16.271397440676797,8.56935479e-07,1
40,117.3076458104693,38.999249194564634,8,16.271397012209057,-8.56935479e-07,1
41,117.30755178321684,38.99924551838401,8,16.27139574935039,-2.5257173348e-06,1
42,117.30745790455065,38.99924000701569,8,16.27139365085355,-4.1969936788e-06,1
43,117.30736423377374,38.999232663940795,8,16.271390728606434,-5.8444942326e-06,1
44,117.30727083005779,38.999223493797345,8,16.271387001363514,-7.4544858393e-06,1
45,117.30717775240568,38.99921250237742,8,16.271382501812422,-8.9991021852e-06,1
46,117.30708505961428,38.999199696623414,8,16.27137724670321,-1.05102184236e-05,1
47,117.3069928102372,38.99918508462374,8,16.27137127554668,-1.19423130585e-05,1
48,117.30690106254791,38.99916867560763,8,16.27136462551038,-1.33000726024e-05,1
49,117.30680987450279,38.99915047993938,8,16.271357338841018,-1.45733387242e-05,1
50,117.30671930370461,38.99913050911176,8,16.27134945516971,-1.57673426173e-05,1
51,117.30662940736607,38.999108775738776,8,16.271341037189103,-1.68359612118e-05,1
52,117.30654024227366,38.999085293547694,8,16.27133213036256,-1.78136530877e-05,1
53,117.30645186475179,38.999060077370366,8,16.271322793300097,-1.86741249237e-05,1
54,117.3063643306272,38.999033143133865,8,16.271313088095326,-1.94104095428e-05,1
55,117.30627769519366,38.999004507850444,8,16.271303081465994,-2.00132586627e-05,1
56,117.30619201317705,38.99897418960675,8,16.271292824246846,-2.05144382974e-05,1
57,117.30610733870081,38.998942207552446,8,16.271282394924956,-2.08586437793e-05,1
58,117.30602372525166,38.998908581888074,8,16.271271862545426,-2.10647590606e-05,1
59,117.3059412256459,38.99887333385233,8,16.27126129221135,-2.1140668153e-05,1
60,117.30585989199598,38.99883648570862,8,16.271250747373887,-2.10896749238e-05,1
61,117.30577977567758,38.99879806073103,8,16.27124031995513,-2.08548375156e-05,1
62,117.30570092729718,38.99875808318961,8,16.271230054558792,-2.05307926748e-05,1
63,117.30562339666007,38.99871657833501,8,16.271220034760347,-2.00395968903e-05,1
64,117.30554723273887,38.9986735723826,8,16.27121032899624,-1.94115282142e-05,1
65,117.30547248364262,38.99862909249585,8,16.271201004023087,-1.86499463055e-05,1
66,117.30539919658635,38.99858316676922,8,16.27119211852688,-1.77709924145e-05,1
67,117.3053274178613,38.99853582421038,8,16.271183747472367,-1.67421090254e-05,1
68,117.30525719280564,38.9984870947219,8,16.27117594462967,-1.56056853911e-05,1
69,117.30518856577586,38.99843700908239,8,16.271168766084738,-1.43570898672e-05,1
70,117.30512158011871,38.99838559892698,8,16.271162273745688,-1.29846781007e-05,1
71,117.30505627814385,38.99833289672745,8,16.27115652066554,-1.15061602983e-05,1
72,117.30499270109715,38.99827893577163,8,16.271151545389756,-9.9505515649e-06,1
73,117.30493088913458,38.99822375014242,8,16.27114739611326,-8.2985529914e-06,1
74,117.30487088129689,38.99816737469625,8,16.27114411309296,-6.5660406037e-06,1
75,117.30481271548494,38.99810984504105,8,16.271141733607312,-4.7589712935e-06,1
76,117.30475642843577,38.99805119751379,8,16.27114028312397,-2.9009666846e-06,1
77,117.30470205569938,38.997991469157505,8,16.27113978748403,-9.91279876e-07,1
78,117.30464963161634,38.997930697697896,8,16.271140267882114,9.607961644e-07,1
79,117.30459918929601,38.99786892151953,8,16.271141740758235,2.945752243e-06,1
80,117.30455076059575,38.99780617964157,8,16.271144213351658,4.9451868449e-06,1
81,117.30450437610067,38.99774251169312,8,16.271147687645595,6.948587874e-06,1
82,117.30446006510445,38.997677957888214,8,16.27115216843089,8.9615705932e-06,1
83,117.30441785559078,38.99761255900044,8,16.271157644507273,1.09521527634e-05,1
84,117.30437777421572,38.997546356337125,8,16.27116409854741,1.29080802722e-05,1
85,117.30433984629083,38.997479391713284,8,16.27117152683483,1.48565748432e-05,1
86,117.30430409576726,38.99741170742522,8,16.271179891131858,1.67285940549e-05,1
87,117.30427054522056,38.99734334622378,8,16.271189176345516,1.8570427315e-05,1
88,117.30423921583653,38.99727435128735,8,16.271199338170657,2.03236502827e-05,1
89,117.30421012739775,38.997204766194635,8,16.271210347511985,2.20186826567e-05,1
90,117.30418329827117,38.997134634897044,8,16.271222160170947,2.36253179224e-05,1
91,117.30415874539649,38.99706400169102,8,16.271234727457696,2.51345734981e-05,1
92,117.30413648427552,38.99699291119002,8,16.27124799280146,2.65306875278e-05,1
93,117.3041165289623,38.996921408296316,8,16.271261916154884,2.78467068497e-05,1
94,117.30409889205438,38.99684953817267,8,16.2712764235059,2.90147020294e-05,1
95,117.30408358468479,38.99677734621378,8,16.27129146553527,3.00840587428e-05,1
96,117.30407061651503,38.99670487801767,8,16.271306967715866,3.10043611904e-05,1
97,117.30405999572903,38.996632179356766,8,16.271322870485704,3.18055396775e-05,1
98,117.30405172902796,38.99655929614912,8,16.27133909940398,3.24578365536e-05,1
99,117.304045821626,38.99648627442933,8,16.271355587358318,3.29759086739e-05,1
100,117.30404227724712,38.99641316031948,8,16.27137225702963,3.33393426217e-05,1
101,117.30404109812272,38.99634,8,16.27138904082199,3.35675847225e-05,1
102,117.30404228499022,38.996266839680516,8,16.271405860660995,3.36396780085e-05,1
103,117.30404583709263,38.99619372557066,8,16.271422642168204,3.35630144193e-05,1
104,117.30405175217906,38.99612070385087,8,16.271439315361985,3.33463875606e-05,1
105,117.30406002650612,38.99604782064323,8,16.271455800724283,3.29707245967e-05,1
106,117.30407065484036,38.995975121982326,8,16.271472029150853,3.24568531411e-05,1
107,117.30408363046153,38.99590265378621,8,16.271487929042213,3.17997827182e-05,1
108,117.30409894516693,38.995830461827325,8,16.271503433707046,3.10093296676e-05,1
109,117.30411658927646,38.99575859170368,8,16.271518469110152,3.00708062113e-05,1
110,117.30413655163893,38.99568708880997,8,16.271532977093816,2.90159673284e-05,1
111,117.30415881963903,38.99561599830897,8,16.271546893253266,2.78323188994e-05,1
112,117.30418337920526,38.99554536510295,8,16.271560163123258,2.65397399843e-05,1
113,117.30421021481894,38.99547523380536,8,16.271572726442262,2.51266380076e-05,1
114,117.304239309524,38.99540564871264,8,16.271584533078382,2.36132722407e-05,1
115,117.30427064493765,38.995336653776214,8,16.271595542142567,2.20181283694e-05,1
116,117.30430420126206,38.99526829257477,8,16.271605700946193,2.03176072517e-05,1
117,117.30433995729686,38.99520060828671,8,16.27161498156022,1.85612280532e-05,1
118,117.30437789045257,38.99513364366287,8,16.27162334845289,1.67337853441e-05,1
119,117.30441797676482,38.995067440999556,8,16.271630765540113,1.48341744435e-05,1
120,117.30446019090958,38.99500204211178,8,16.27163722319097,1.2915301717e-05,1
121,117.3045045062191,38.994937488306874,8,16.271642697179406,1.09479768682e-05,1
122,117.30455089469879,38.99487382035842,8,16.271647172541595,8.9507243786e-06,1
123,117.30459932704493,38.99481107848046,8,16.27165064449276,6.9439023278e-06,1
124,117.30464977266314,38.9947493023021,8,16.27165311353788,4.9380902425e-06,1
125,117.30470219968778,38.99468853084249,8,16.271654586897462,2.9467191638e-06,1
126,117.30475657500203,38.994628802486204,8,16.271655061883617,9.499723106e-07,1
127,117.30481286425884,38.99457015495894,8,16.271654568627795,-9.865116439e-07,1
128,117.30487103190261,38.99451262530374,8,16.27165311379128,-2.9096730287e-06,1
129,117.30493104119167,38.99445624985757,8,16.271650731623083,-4.7643363956e-06,1
130,117.3049928542215,38.99440106422836,8,16.27164744927417,-6.5646978271e-06,1
131,117.30505643194864,38.994347103272545,8,16.27164329853407,-8.3014802001e-06,1
132,117.30512173421543,38.99429440107301,8,16.271638325654543,-9.9457590537e-06,1
133,117.30518871977526,38.994242990917606,8,16.271632568526385,-1.15142563146e-05,1
134,117.3052573463187,38.99419290527809,8,16.271626073766637,-1.29895194974e-05,1
135,117.30532757050021,38.994144175789614,8,16.2716188982021,-1.43511290744e-05,1
136,117.30539934796555,38.99409683323077,8,16.271611094379143,-1.56076459135e-05,1
137,117.30547263337971,38.994050907504146,8,16.271602725817342,-1.67371236017e-05,1
138,117.30554738045561,38.99400642761739,8,16.271593841464682,-1.77687053196e-05,1
139,117.30562354198331,38.993963421664986,8,16.27158451399886,-1.86549316439e-05,1
140,117.30570106985981,38.993921916810386,8,16.271574809154572,-1.94096885764e-05,1
141,117.30577991511947,38.99388193926896,8,16.271564790622786,-2.0037063571e-05,1
142,117.3058600279649,38.99384351429137,8,16.271554531948222,-2.05173491281e-05,1
143,117.30594135779839,38.99380666614766,8,16.271544096677573,-2.08705412987e-05,1
144,117.30602385325388,38.99377141811192,8,16.271533557505766,-2.10783436145e-05,1
145,117.3061074622294,38.99373779244755,8,16.271522989365806,-2.11362799192e-05,1
146,117.30619213192,38.993705810393244,8,16.27151245712517,-2.10644812739e-05,1
147,117.306277808851,38.99367549214955,8,16.271502031080285,-2.08520897687e-05,1
148,117.30636443891181,38.99364685686613,8,16.271491777200705,-2.05077591602e-05,1
149,117.30645196739015,38.99361992262963,8,16.27148176823392,-2.00179335721e-05,1
150,117.30654033900649,38.9935947064523,8,16.271472064157887,-1.94081520632e-05,1
151,117.306629497949,38.99357122426122,8,16.271462729296864,-1.86697220457e-05,1
152,117.30671938790884,38.993549490888235,8,16.271453829483466,-1.77996267965e-05,1
153,117.30680995211561,38.99352952006061,8,16.271445407439664,-1.68440876038e-05,1
154,117.30690113337326,38.993511324392365,8,16.27143753154906,-1.57517812056e-05,1
155,117.30699287409617,38.99349491537625,8,16.27143024042282,-1.45822524829e-05,1
156,117.30708511634555,38.99348030337658,8,16.271423597344246,-1.32861571487e-05,1
157,117.30717780186595,38.993467497622575,8,16.271417618759454,-1.19571695834e-05,1
158,117.3072708721221,38.99345650620265,8,16.271412372554792,-1.04924093236e-05,1
159,117.30736426833586,38.9934473360592,8,16.27140786677449,-9.0115606071e-06,1
160,117.30745793152326,38.9934399929843,8,16.271404147985677,-7.4375776222e-06,1
161,117.3075518025318,38.993434481615985,8,16.27140121891678,-5.8581377971e-06,1
162,117.30764582207783,38.99343080543536,8,16.27139912507459,-4.1876843753e-06,1
163,117.30773993078387,38.99342896676438,8,16.27139786430015,-2.5215488861e-06,1
164,117.30783406921614,38.99342896676438,8,16.2713974321,-8.644002989e-07,1
165,117.30792817792218,38.99343080543536,8,16.271397859903583,8.556071691e-07,1
166,117.3080221974682,38.993434481615985,8,16.271399129466996,2.5391268252e-06,1
167,117.30811606847675,38.9934399929843,8,16.27140121891678,4.1788995659e-06,1
168,117.30820973166415,38.9934473360592,8,16.271404147985677,5.8581377971e-06,1
169,117.3083031278779,38.99345650620265,8,16.27140786677449,7.4375776222e-06,1
170,117.30839619813406,38.993467497622575,8,16.27141236820675,9.0028645232e-06,1
171,117.30848888365446,38.99348030337658,8,16.27141762308952,1.05097655378e-05,1
172,117.30858112590384,38.99349491537625,8,16.271423597344246,1.1948509453e-05,1
173,117.30867286662675,38.993511324392365,8,16.27143024042282,1.32861571487e-05,1
174,117.3087640478844,38.99352952006061,8,16.27143753154906,1.45822524829e-05,1
175,117.30885461209117,38.993549490888235,8,16.271445407439664,1.57517812056e-05,1
176,117.308944502051,38.99357122426122,8,16.271453829483466,1.68440876038e-05,1
177,117.30903366099352,38.9935947064523,8,16.271462729296864,1.77996267965e-05,1
178,117.30912203260986,38.99361992262963,8,16.271472064157887,1.86697220457e-05,1
179,117.3092095610882,38.99364685686613,8,16.27148176823392,1.94081520632e-05,1
180,117.30929619114902,38.99367549214955,8,16.271491777200705,2.00179335721e-05,1
181,117.30938186808001,38.993705810393244,8,16.271502031080285,2.05077591602e-05,1
182,117.3094665377706,38.99373779244755,8,16.27151245712517,2.08520897687e-05,1
183,117.30955014674613,38.99377141811192,8,16.271522989365806,2.10644812739e-05,1
184,117.30963264220162,38.99380666614766,8,16.271533557505766,2.11362799192e-05,1
185,117.30971397203511,38.99384351429137,8,16.271544096677573,2.10783436145e-05,1
186,117.30979408488054,38.99388193926896,8,16.271554531948222,2.08705412987e-05,1
187,117.3098729301402,38.993921916810386,8,16.271564790622786,2.05173491281e-05,1
188,117.3099504580167,38.993963421664986,8,16.271574809154572,2.0037063571e-05,1
189,117.3100266195444,38.99400642761739,8,16.27158451399886,1.94096885764e-05,1
190,117.3101013666203,38.994050907504146,8,16.271593841464682,1.86549316439e-05,1
191,117.31017465203446,38.99409683323077,8,16.271602722393705,1.77618580466e-05,1
192,117.3102464294998,38.994144175789614,8,16.27161109773233,1.6750677247e-05,1
193,117.31031665368131,38.99419290527809,8,16.2716188982021,1.56009395411e-05,1
194,117.31038528022475,38.994242990917606,8,16.271626073766637,1.43511290744e-05,1
195,117.31045226578458,38.99429440107301,8,16.271632568526385,1.29895194974e-05,1
196,117.31051756805137,38.994347103272545,8,16.271638325654543,1.15142563146e-05,1
197,117.31058114577851,38.99440106422836,8,16.27164329853407,9.9457590537e-06,1
198,117.31064295880834,38.99445624985757,8,16.271647446386517,8.2957048946e-06,1
199,117.3107029680974,38.99451262530374,8,16.271650731623083,6.5704731327e-06,1
200,117.31076113574117,38.99457015495894,8,16.27165311650863,4.7697710954e-06,1
201,117.31081742499798,38.994628802486204,8,16.271654568627795,2.9042383289e-06,1
202,117.31087180031223,38.99468853084249,8,16.271655061883617,9.865116439e-07,1
203,117.31092422733687,38.9947493023021,8,16.271654586897462,-9.499723106e-07,1
204,117.31097467295508,38.99481107848046,8,16.27165311353788,-2.9467191638e-06,1
205,117.31102310530122,38.99487382035842,8,16.27165064449276,-4.9380902425e-06,1
206,117.3110694937809,38.994937488306874,8,16.271647172541595,-6.9439023278e-06,1
207,117.31111380909043,38.99500204211178,8,16.271642695109207,-8.954864775e-06,1
208,117.31115602323518,38.995067440999556,8,16.271637225163012,-1.09398923911e-05,1
209,117.31119610954744,38.99513364366287,8,16.271630765540113,-1.29192457976e-05,1
210,117.31123404270315,38.99520060828671,8,16.27162334845289,-1.48341744435e-05,1
211,117.31126979873795,38.99526829257477,8,16.27161498156022,-1.67337853441e-05,1
212,117.31130335506236,38.995336653776214,8,16.271605700946193,-1.85612280532e-05,1
213,117.31133469047602,38.99540564871264,8,16.271595542142567,-2.03176072517e-05,1
214,117.31136378518107,38.99547523380536,8,16.271584533078382,-2.20181283694e-05,1
215,117.31139062079475,38.99554536510295,8,16.271572726442262,-2.36132722407e-05,1
216,117.31141518036098,38.99561599830897,8,16.271560163123258,-2.51266380076e-05,1
217,117.31143744836108,38.99568708880997,8,16.271546893253266,-2.65397399843e-05,1
218,117.31145741072355,38.99575859170368,8,16.271532976161282,-2.78341839675e-05,1
219,117.31147505483308,38.995830461827325,8,16.27151846993439,-2.90124537869e-05,1
220,117.31149036953848,38.99590265378621,8,16.271503433707046,-3.00724546847e-05,1
221,117.31150334515965,38.995975121982326,8,16.271487928436063,-3.10105419672e-05,1
222,117.31151397349389,38.99604782064323,8,16.27147202964735,-3.1797577428e-05,1
223,117.31152224782095,38.99612070385087,8,16.271455800724283,-3.24578461317e-05,1
224,117.31152816290738,38.99619372557066,8,16.271439315361985,-3.29707245967e-05,1
225,117.31153171500979,38.996266839680516,8,16.271422642168204,-3.33463875606e-05,1
226,117.31153290187729,38.99634,8,16.271405860660995,-3.35630144193e-05,1
227,117.31153172275289,38.99641316031948,8,16.27138904082199,-3.36396780085e-05,1
228,117.311528178374,38.99648627442933,8,16.271372257195207,-3.3567253567e-05,1
229,117.31152227097205,38.99655929614912,8,16.27135558708236,-3.33402256913e-05,1
230,117.31151400427098,38.996632179356766,8,16.27133909940398,-3.29753567598e-05,1
231,117.31150338348498,38.99670487801767,8,16.271322870485704,-3.24578365536e-05,1
232,117.31149041531522,38.99677734621378,8,16.271306967715866,-3.18055396775e-05,1
233,117.31147510794563,38.99684953817267,8,16.27129146553527,-3.10043611904e-05,1
234,117.31145747103771,38.996921408296316,8,16.2712764235059,-3.00840587428e-05,1
235,117.31143751572449,38.99699291119002,8,16.271261916154884,-2.90147020294e-05,1
236,117.31141525460352,38.99706400169102,8,16.271247993841357,-2.78446270556e-05,1
237,117.31139070172884,38.997134634897044,8,16.271234726310745,-2.65350612239e-05,1
238,117.31136387260226,38.997204766194635,8,16.271222160170947,-2.51322795961e-05,1
239,117.31133478416348,38.99727435128735,8,16.271210347511985,-2.36253179224e-05,1
240,117.31130345477945,38.99734334622378,8,16.271199339634162,-2.2015755647e-05,1
241,117.31126990423274,38.99741170742522,8,16.271189174778257,-2.03297118091e-05,1
242,117.31123415370918,38.997479391713284,8,16.271179891131858,-1.85672927984e-05,1
243,117.31119622578429,38.997546356337125,8,16.27117152683483,-1.67285940549e-05,1
244,117.31115614440922,38.99761255900044,8,16.271164100419735,-1.48528301906e-05,1
