,LongitudeGPS,LatitudeGPS,TrackID,Velocity,Acceleration,Type
0,117.3111543521158,38.997613263119796,6,0.0,0.0,1
1,117.31111447705104,38.997677439415774,6,15.84902325964829,31.69804651929658,1
2,117.311068148707,38.997743701128904,6,16.770876208688502,1.843705898080426,1
3,117.31102515781396,38.997804904173265,6,15.50700743181973,-2.527737553737545,1
4,117.31097341563549,38.99787147633871,6,17.296290795544426,3.5785667274493917,1
5,117.3109237859425,38.997930638404476,6,15.706212827289072,-3.180155936510708,1
6,117.310873777956,38.99799091735843,6,15.950192449710462,0.4879592448427807,1
7,117.31081645893823,38.998052933726676,6,16.9810629755076,2.0617410515942787,1
8,117.31076127075019,38.99811053983292,6,15.971947823527788,-2.0182303039596263,1
9,117.31070378138729,38.99816719872702,6,16.046665535437988,0.1494354238203996,1
10,117.31064360373017,38.99822630965437,6,16.76257373556985,1.4318164002637204,1
11,117.31058100768479,38.99828014994859,6,16.13721998116494,-1.2507075088098176,1
12,117.31051658709521,38.99833309668777,6,16.20534182348384,0.1362436846377975,1
13,117.31045172506319,38.99838414185844,6,15.954236025239789,-0.5022115964880989,1
14,117.31038354068502,38.998437597515576,6,16.7391621161284,1.5698521817772253,1
15,117.31031673124389,38.99848543840951,6,15.701142810411174,-2.0760386114344556,1
16,117.31024648793094,38.998536871443285,6,16.67994293604817,1.9576002512739947,1
17,117.31017687407281,38.99858283798955,6,15.78790419903667,-1.7840774740230003,1
18,117.3100996145625,38.99862960305,6,16.925233436716876,2.274658475360411,1
19,117.31002488003948,38.99867414980468,6,16.278247044454613,-1.2939727845245272,1
20,117.30994945567028,38.998714851850984,6,15.87026846526151,-0.8159571583862046,1
21,117.30987461970206,38.99875655572987,6,15.915629500093436,0.0907220696638511,1
22,117.30979497835652,38.99879805327448,6,16.572022537831938,1.3127860754770033,1
23,117.30971416019312,38.99883590417449,6,16.30832842160202,-0.5273882324598347,1
24,117.30963470150212,38.998873455057215,6,16.072769274328234,-0.4711182945475727,1
25,117.30954961554663,38.99890748725413,6,16.538896206027513,0.9322538633985573,1
26,117.30946481945212,38.998941028691206,6,16.444569034638693,-0.1886543427776388,1
27,117.30938131196795,38.99897267675817,6,16.05742579902102,-0.7742864712353494,1
28,117.30929884905807,38.99900442497269,6,15.905221746442923,-0.3044081051561918,1
29,117.30920909494577,38.99903279306938,6,16.746165321341735,1.6818871497976247,1
30,117.30912225033661,38.99905931408463,6,16.12673586433028,-1.238858914022913,1
31,117.30903451353363,38.99908726790134,6,16.388542952379,0.5236141760974462,1
32,117.3089456848843,38.99910759155003,6,16.00388734369384,-0.7693112173703227,1
33,117.30885424233456,38.999130739822824,6,16.621450912018297,1.235127136648913,1
34,117.30876556172181,38.99915076590282,6,15.960744304219777,-1.3214132155970404,1
35,117.3086740270046,38.99917004815883,6,16.390950859051557,0.8604131096635612,1
36,117.30858018920657,38.99918620081645,6,16.61117429018399,0.4404468622648636,1
37,117.30848743049324,38.999201134035964,6,16.3719773312968,-0.4783939177743761,1
38,117.3083947847324,38.99921166963133,6,16.182604142761047,-0.3787463770715078,1
39,117.30830268284241,38.999223931316756,6,16.149965184915505,-0.0652779156910839,1
40,117.30820894592811,38.99923286652836,6,16.32207852818421,0.3442266865374108,1
41,117.30811406127086,38.99924241054138,6,16.535817143935343,0.4274772315022659,1
42,117.30802330971063,38.99924570113811,6,15.701765401738308,-1.66810348439407,1
43,117.30792735494728,38.999248897593276,6,16.59920654723064,1.7948822909846633,1
44,117.30783277278937,38.99924874126289,6,16.346785881105287,-0.5048413322507059,1
45,117.30774111857923,38.9992510451004,6,15.848991445088116,-0.9955888720343431,1
46,117.30764426438512,38.99924857432966,6,16.748443309138562,1.7989037281008926,1
47,117.30755006120677,38.9992442888689,6,16.30911988308085,-0.8786468521154234,1
48,117.30745758957758,38.999240041904535,6,16.0098687065202,-0.5985023531212974,1
49,117.30736495787431,38.999232250720716,6,16.103140964014536,0.1865445149886682,1
50,117.30727349482821,38.999223078337835,6,15.938742641782948,-0.3287966444631749,1
51,117.30717921558478,38.99921170592077,6,16.489510899149753,1.1015365147336098,1
52,117.30708495747758,38.99919875660006,6,16.543332883018284,0.1076439677370615,1
53,117.30699054683656,38.99918545195899,6,16.58321307389981,0.0797603817630517,1
54,117.30690094323207,38.99916588025879,6,16.08634942943745,-0.9937272889247168,1
55,117.30680915652071,38.99915046765908,6,16.229701191454357,0.2867035240338112,1
56,117.3067185750944,38.99912979547982,6,16.316375423335558,0.1733484637624017,1
57,117.30663050319382,38.99910830231606,6,15.954441965208167,-0.7238669162547815,1
58,117.3065414547695,38.999084114901585,6,16.303307243417006,0.6977305564176781,1
59,117.30645090297043,38.999062739635754,6,16.35623343905562,0.1058523912772316,1
60,117.30636435254321,38.999033094569256,6,16.347047103922637,-0.0183726702659683,1
61,117.30627798210048,38.999002963177595,6,16.36258621816944,0.0310782284936053,1
62,117.30619328649257,38.99897335021182,6,16.051303915630225,-0.6225646050784306,1
63,117.30610903748966,38.99894129000833,6,16.21281190108006,0.323015970899668,1
64,117.30602327264025,38.99890700609767,6,16.66883520134317,0.9120466005262244,1
65,117.30594003982046,38.99887347951183,6,16.202729353852202,-0.9322116949819375,1
66,117.30586121152407,38.998836979456314,6,15.858902370353714,-0.6876539669969759,1
67,117.30577970095906,38.99879854768429,6,16.477574020248266,1.237343299789103,1
68,117.30569986546396,38.99875967116138,6,16.283059523649055,-0.3890289931984228,1
69,117.30562410465183,38.998717434963105,6,16.11451334322243,-0.3370923608532479,1
70,117.30554737253145,38.99867389911335,6,16.419968634379128,0.6109105823133945,1
71,117.30547338233191,38.99862746778646,6,16.43637123830611,0.0328052078539613,1
72,117.30539968447707,38.998585172689005,6,15.833961484432862,-1.2048195077464925,1
73,117.30532867670127,38.998534205631074,6,16.705864932655384,1.7438068964450437,1
74,117.30525717604888,38.9984868766196,6,16.232623609525074,-0.9464826462606197,1
75,117.30518697198906,38.998435571261226,6,16.655548179093184,0.8458491391362202,1
76,117.30512052848006,38.998386091820365,6,15.904595295645093,-1.5019057668961828,1
77,117.3050578605304,38.99833326823226,6,15.978583694908687,0.1479767985271891,1
78,117.30499152419873,38.998278584798264,6,16.71347900767147,1.4697906255255653,1
79,117.30493046270931,38.998222151381945,6,16.397681039231575,-0.6315959368797905,1
80,117.30487087282005,38.99816853946864,6,15.755134749503963,-1.285092579455224,1
81,117.30481277448577,38.99810987687912,6,16.462872295536776,1.415475092065627,1
82,117.30475728758694,38.99805234360467,6,15.98986962929042,-0.9460053324927138,1
83,117.30470008182108,38.99799045678372,6,16.946244628046426,1.9127499975120124,1
84,117.30464891771803,38.997930492720144,6,16.000938055218565,-1.8906131456557205,1
85,117.30459770793698,38.99786686867775,6,16.68954258299342,1.3772090555497059,1
86,117.30455104970775,38.997807528187465,6,15.465579808049453,-2.4479255498879304,1
87,117.30450461875873,38.99774216584565,6,16.60396896458652,2.2767783130741357,1
88,117.30445872739678,38.99767684219479,6,16.55154774260902,-0.1048424439550004,1
89,117.3044164149696,38.99761311117932,6,15.948626769327591,-1.2058419465628596,1
90,117.30437981059659,38.99754671568415,6,16.0639467393306,0.230639940006018,1
91,117.3043398097302,38.99747977555293,6,16.413848145459742,0.6998028122582838,1
92,117.30430197090328,38.997412410566156,6,16.34653747322894,-0.1346213444616069,1
93,117.30426826636089,38.99734400011572,6,16.29092140356776,-0.1112321393223539,1
94,117.30423996753129,38.99727364182013,6,16.393600045741536,0.2053572843475493,1
95,117.30421111473443,38.99720524301558,6,16.007774275693947,-0.7716515400951778,1
96,117.30418370438002,38.9971351309346,6,16.296046285350357,0.57654401931282,1
97,117.30415761667231,38.99706380161322,6,16.49128220860195,0.3904718465031891,1
98,117.30413583323745,38.996991178571065,6,16.583661122399967,0.1847578275960302,1
99,117.30411681808764,38.996919219258125,6,16.337009598002993,-0.4933030487939476,1
100,117.30409911400399,38.99684954830065,6,15.793374631877109,-1.0872699322517683,1
101,117.3040823078056,38.996775212266215,6,16.784833020652762,1.9829167775513064,1
102,117.30407004264536,38.996704603586515,6,15.845100866138797,-1.8794643090279308,1
103,117.30406123979257,38.996632579464034,6,16.089532098694253,0.4888624651109126,1
104,117.30405179301083,38.99655854804415,6,16.544600959232913,0.9101377210773194,1
105,117.30404533219333,38.996486909445856,6,15.970784000756806,-1.1476339169522127,1
106,117.30404197798518,38.996410904601674,6,16.91264519487435,1.883722388235089,1
107,117.30404026942672,38.99634166663571,6,15.400652552134677,-3.0239852854793483,1
108,117.30404195823533,38.99626759709668,6,16.474899881888486,2.1484946595076195,1
109,117.30404583092839,38.99619453661942,6,16.26169030208531,-0.426419159606354,1
110,117.30405181587011,38.99612106305091,6,16.372486951439786,0.2215932987089531,1
111,117.30406158812818,38.99604738381725,6,16.472336784837918,0.1996996667962634,1
112,117.30407225310277,38.99597667537598,6,15.832511978482604,-1.279649612710628,1
113,117.30408492944841,38.9959034812583,6,16.424419657733893,1.183815358502578,1
114,117.30409968472125,38.99582876332734,6,16.811079447614127,0.773319579760468,1
115,117.30411694153182,38.995758415072004,6,15.926521909122686,-1.7691150769828816,1
116,117.30413478980402,38.99568515929057,6,16.58084437728062,1.3086449363158685,1
117,117.30415896610927,38.995617223425654,6,15.675461667049664,-1.8107654204619124,1
118,117.30418404226972,38.99554516948721,6,16.599869380579054,1.8488154270587813,1
119,117.30421107057288,38.995473959837355,6,16.510971574358308,-0.1777956124414928,1
120,117.30423810956795,38.99540479396721,6,16.076080905001977,-0.8697813387126629,1
121,117.30427114893253,38.9953385455068,6,15.800987229353424,-0.5501873512971045,1
122,117.30430191233386,38.99526669848575,6,16.83954736908967,2.0771202794724886,1
123,117.30433867204381,38.99520068134387,6,15.997366699921706,-1.6843613383359255,1
124,117.30437930154012,38.995133305653255,6,16.547663613045028,1.1005938262466444,1
125,117.3044194497591,38.995067579725635,6,16.18035035297646,-0.7346265201371338,1
126,117.30446006681635,38.99500112174774,6,16.362175360754684,0.3636500155564448,1
127,117.30450408431619,38.99493660978935,6,16.239253636457878,-0.245843448593611,1
128,117.30454868578053,38.99487385736088,6,15.94317185355803,-0.592163565799698,1
129,117.304599201181,38.99481165397765,6,16.358377695434797,0.8304116837535354,1
130,117.30465063266226,38.994748156390465,6,16.68629713153147,0.6558388721933497,1
131,117.30469962551875,38.99468830383333,6,15.775923373244384,-1.8207475165741762,1
132,117.30475571216844,38.994626268732354,6,16.861363412715722,2.1708800789426768,1
133,117.30481045915553,38.99457021964847,6,15.649629983056117,-2.423466859319209,1
134,117.30487129927387,38.99450698547384,6,17.55959157858963,3.819923191067023,1
135,117.30493179185731,38.99445525339551,6,15.546053093651182,-4.0270769698768945,1
136,117.30498985960332,38.9943997667557,6,15.905997068223355,0.7198879491443471,1
137,117.30505223031163,38.99434808791969,6,15.757584496832857,-0.296825142780996,1
138,117.30512074913536,38.99429220498004,6,17.167038565860146,2.818908138054578,1
139,117.30518677038971,38.994242219200025,6,15.930831857241229,-2.472413417237835,1
140,117.30525473303267,38.994191206752234,6,16.330670213027624,0.7996767115727899,1
141,117.30532553479159,38.994143631756764,6,16.177150614475032,-0.3070391971051833,1
142,117.30539677538094,38.99409240774849,6,16.774768576793814,1.195235924637565,1
143,117.3054694906649,38.99404919901089,6,15.820899670514796,-1.907737812558036,1
144,117.30554471741824,38.99400625361692,6,16.133167443848134,0.6245355466666744,1
145,117.30561985972946,38.99395909491183,6,16.69358409463547,1.1208333015746703,1
146,117.30569934134908,38.99392368386067,6,15.83500559597378,-1.7171569973233787,1
147,117.30577886446427,38.993878770500196,6,16.990992817281125,2.311974442614691,1
148,117.30586171278688,38.99384477599068,6,16.192982347455512,-1.5960209396512255,1
149,117.30594144643882,38.99380110695786,6,16.85955224405432,1.333139793197617,1
150,117.30602251696996,38.99376879363006,6,15.74781890796443,-2.223466672179782,1
151,117.30610882871181,38.9937332248012,6,16.885873259938435,2.2761087039480117,1
152,117.30618654341845,38.993702498970976,6,15.07068510369526,-3.6303763124863515,1
153,117.30627563244164,38.993676635379835,6,16.437739228997287,2.7341082506040557,1
154,117.30636441095483,38.99364397530068,6,16.97708308571909,1.0786877134436068,1
155,117.30644960261935,38.993619072440595,6,15.73197725845604,-2.490211654526103,1
156,117.30653694862626,38.99359410368736,6,16.086100409680547,0.708246302449016,1
157,117.30662872084545,38.993569240684934,6,16.798447649294765,1.4246944792284353,1
158,117.30671874002255,38.993547245672815,6,16.310137714907547,-0.976619868774435,1
159,117.30680579803612,38.99352590867652,6,15.777998333986707,-1.0642787618416811,1
160,117.306903134655,38.99351247815763,6,17.087236953054358,2.618477238135302,1
161,117.30699108515111,38.9934945884712,6,15.71380993893754,-2.746854028233635,1
162,117.30708634183635,38.99347614020329,6,16.968133139255254,2.5086464006354277,1
163,117.30717862914852,38.99346703607117,6,16.079409185351675,-1.777447907807158,1
164,117.30726806845033,38.9934578310558,6,15.594116470822001,-0.9705854290593479,1
165,117.30735868912593,38.993447629042706,6,15.826829619211392,0.4654262967787801,1
166,117.30745577060794,38.99344063111743,6,16.852099942523875,2.0505406466249667,1
167,117.30755375259544,38.99343349407972,6,17.009949668476143,0.3156994519045355,1
168,117.30764273626022,38.99342889119399,6,15.414445054117984,-3.191009228716318,1
169,117.30773899418666,38.99342532834918,6,16.656598906817322,2.4843077053986775,1
170,117.30782967279345,38.99342857008767,6,15.689954439618479,-1.9332889343976873,1
171,117.30792579001532,38.99343036877424,6,16.618236968184913,1.856565057132869,1
172,117.30801938785534,38.99342958543021,6,16.1788962316902,-0.8786814729894274,1
173,117.30811900388605,38.99344100222666,6,17.40436509734542,2.4509377313104395,1
174,117.3082071257533,38.99344521497475,6,15.260244506870714,-4.288241180949409,1
175,117.30829935010935,38.993457219924366,6,16.162578787742017,1.8046685617426057,1
176,117.30839452234905,38.993465949901186,6,16.56424917361434,0.8033407717446437,1
177,117.30848658964906,38.993482290364234,6,16.32305009448306,-0.4823981582625549,1
178,117.30857747780996,38.99349234174836,6,15.867825869556366,-0.9104484498533907,1
179,117.3086684662693,38.993508304274094,6,16.122590635295044,0.5095295314773551,1
180,117.30876149935422,38.993525075653515,6,16.507213262723806,0.7692452548575233,1
181,117.30885140590337,38.99355021605815,6,16.515078514377876,0.0157305033081414,1
182,117.30894912400792,38.99356980000503,6,17.442583917021576,1.8550108052873995,1
183,117.3090323245755,38.99359876622267,6,15.75767357897052,-3.369820676102112,1
184,117.30912299401459,38.99361743986913,6,16.2126492786284,0.9099513993157622,1
185,117.30921080206957,38.993650553241125,6,16.86939052441948,1.3134824915821568,1
186,117.30929411590418,38.99367584550169,6,15.459893605541861,-2.8189938377552366,1
187,117.3093814197119,38.993708385343844,6,16.735462653740925,2.5511380963981267,1
188,117.30946944276411,38.99374005689162,6,16.76560185043673,0.0602783933916129,1
189,117.30954910766555,38.99377170368537,6,15.4640119981941,-2.6031797044852603,1
190,117.30963307124446,38.993808034666074,6,16.610163047462944,2.292302098537686,1
191,117.30971402959514,38.99384454563706,6,16.178341578269016,-0.863642938387855,1
192,117.30979357226833,38.99388083346441,6,15.941987140629777,-0.472708875278478,1
193,117.30987721216331,38.99392345277256,6,17.286697504997953,2.6894207287363514,1
194,117.30995253236,38.99396419039405,6,15.86071834796478,-2.8519583140663443,1
195,117.31002940753329,38.99400600779415,6,16.218542042455006,0.7156473889804502,1
196,117.31010026472818,38.99405195458777,6,15.95006035404305,-0.5369633768239126,1
197,117.31017494068571,38.99410037929486,6,16.809900381456192,1.7196800548262843,1
198,117.31025027294811,38.99414436941964,6,16.286347931032928,-1.0471049008465272,1
199,117.31032060279708,38.99419342089453,6,16.33298505829094,0.0932742545160252,1
200,117.31038469548977,38.994246348965504,6,16.163872394402542,-0.3382253277767973,1
201,117.31045127235726,38.994294467034834,6,15.714017185388014,-0.8997104180290556,1
202,117.31051973585309,38.99434876254893,6,16.90652864957429,2.3850229283725533,1
203,117.31058071380829,38.99440326754653,6,16.06271805293257,-1.6876211932834408,1
204,117.31064379110778,38.994454613587166,6,15.787770399196484,-0.5498953074721733,1
205,117.3107056575804,38.994514059669534,6,17.003466596953505,2.4313923955140417,1
206,117.31076673159664,38.994571450038364,6,16.56286210928733,-0.8812089753323491,1
207,117.31081735722114,38.994629519431925,6,15.599347070720215,-1.92703007713423,1
208,117.31087030451202,38.9946877399156,6,15.855350983185756,0.5120078249310822,1
209,117.31092368190241,38.9947501936424,6,16.67402406212477,1.6373461578780244,1
210,117.31097615085503,38.99481219762668,6,16.50400087754638,-0.3400463691567808,1
211,117.31102777179048,38.99487246172338,6,16.10042606420831,-0.8071496266761358,1
212,117.31107087325488,38.99493654438755,6,16.081016451811116,-0.0388192247943877,1
213,117.31111534466231,38.99500003802736,6,16.076893547955912,-0.0082458077104093,1
214,117.31116148922487,38.995066641003675,6,16.82266079429344,1.4915344926750578,1
215,117.31119681990947,38.99513325558451,6,16.023646628745457,-1.5980283310959678,1
216,117.31123518484422,38.99520184134136,6,16.63183355205391,1.2163738466169036,1
217,117.31126840135545,38.99527071352914,6,16.357124565879325,-0.5494179723491683,1
218,117.31130571421099,38.99533976900461,6,16.656431871910183,0.5986146120617164,1
219,117.31133887086138,38.9954081122254,6,16.243367124142893,-0.8261294955345804,1
220,117.31136501820292,38.9954778331647,6,16.150430085404512,-0.1858740774767611,1
221,117.31139095887865,38.995546277453656,6,15.867925746784385,-0.5650086772402538,1
222,117.31141435926574,38.99561828081827,6,16.515705481793084,1.2955594700173982,1
223,117.31144210616732,38.995690537769384,6,16.769587023739795,0.5077630838934226,1
224,117.31145939084489,38.99575931478542,6,15.584337116092039,-2.3704998152955135,1
225,117.31147799098997,38.99583245536026,6,16.580377404551037,1.9920805769179957,1
226,117.31149375191129,38.99590091092341,6,15.465624706679037,-2.229505395743999,1
227,117.31150577441738,38.995979136802056,6,17.52030437468663,4.1093593360151885,1
228,117.31151532132321,38.996046508684685,6,15.073411947599467,-4.893784854174328,1
229,117.31152311640066,38.99612059421209,6,16.530864356765584,2.914904818332232,1
230,117.31152975293034,38.996194542186586,6,16.485233715734754,-0.0912612820616587,1
231,117.31153320335348,38.996270785745565,6,16.966278298643577,0.9620891658176447,1
232,117.31153201878124,38.9963391534694,6,15.205666514049144,-3.521223569188866,1
233,117.31153285954726,38.99641214305254,6,16.232793138030935,2.054253247963583,1
234,117.31152770119232,38.99648622770796,6,16.49978082719464,0.5339753783274119,1
235,117.31152293665612,38.99655732105198,6,15.83186976558211,-1.3358221232250607,1
236,117.31151524031397,38.99663255514616,6,16.784095203387132,1.904450875610042,1
237,117.31150231514367,38.996703989908696,6,16.042667733180195,-1.4828549404138727,1
238,117.31148906646341,38.99677584656746,6,16.14342030713721,0.2015051479140268,1
239,117.31147606747889,38.99684940530136,6,16.51227681112968,0.7377130079849437,1
240,117.311458538091,38.99692199838496,6,16.425798476030568,-0.172956670198225,1
